SpectraSuite Data File
++++++++++++++++++++++++++++++++++++
Date: Wed Jul 27 14:11:24 EEST 2016
User: OO Maya
Dark Spectrum Present: No
Reference Spectrum Present: No
Number of Sampled Component Spectra: 1
Spectrometers: MAYP11278
Integration Time (usec): 220000 (MAYP11278)
Spectra Averaged: 3 (MAYP11278)
Boxcar Smoothing: 0 (MAYP11278)
Correct for Electrical Dark: No (MAYP11278)
Strobe/Lamp Enabled: No (MAYP11278)
Correct for Detector Non-linearity: Yes (MAYP11278)
Correct for Stray Light: No (MAYP11278)
Number of Pixels in Processed Spectrum: 2068
>>>>>Begin Processed Spectral Data<<<<<
187,82	2286,44
188,30	2208,29
188,78	2179,35
189,26	2178,69
189,73	2411,16
190,21	2439,10
190,69	2433,77
191,17	2449,74
191,64	2472,35
192,12	2439,43
192,60	2446,41
193,07	2431,11
193,55	2459,05
194,03	2429,78
194,51	2457,05
194,98	2443,42
195,46	2460,05
195,94	2440,09
196,42	2452,07
196,89	2489,32
197,37	2450,74
197,85	2438,10
198,32	2439,76
198,80	2427,79
199,28	2450,74
199,76	2463,04
200,23	2451,07
200,71	2454,39
201,19	2474,02
201,66	2475,35
202,14	2463,71
202,62	2433,11
203,09	2460,71
203,57	2429,12
204,05	2466,37
204,53	2474,68
205,00	2442,09
205,48	2444,75
205,96	2469,69
206,43	2448,74
206,91	2453,40
207,39	2496,30
207,86	2452,07
208,34	2455,06
208,82	2452,07
209,29	2458,05
209,77	2460,71
210,25	2448,41
210,72	2442,75
211,20	2463,71
211,68	2448,74
212,15	2447,08
212,63	2483,00
213,11	2452,07
213,58	2452,73
214,06	2481,67
214,53	2452,07
215,01	2480,67
215,49	2456,72
215,96	2470,69
216,44	2459,38
216,92	2452,73
217,39	2439,43
217,87	2448,74
218,35	2471,36
218,82	2429,78
219,30	2443,75
219,77	2435,77
220,25	2443,09
220,73	2497,63
221,20	2444,42
221,68	2467,70
222,15	2449,07
222,63	2473,68
223,11	2453,06
223,58	2451,73
224,06	2463,04
224,53	2450,40
225,01	2439,43
225,49	2460,71
225,96	2438,10
226,44	2458,05
226,91	2475,68
227,39	2456,06
227,87	2475,01
228,34	2470,36
228,82	2466,70
229,29	2463,71
229,77	2453,40
230,24	2442,75
230,72	2461,38
231,20	2470,69
231,67	2454,06
232,15	2451,07
232,62	2437,77
233,10	2456,72
233,57	2456,39
234,05	2512,60
234,53	2469,36
235,00	2460,71
235,48	2444,75
235,95	2443,09
236,43	2473,02
236,90	2496,63
237,38	2442,42
237,85	2452,40
238,33	2456,06
238,80	2459,05
239,28	2449,74
239,75	2437,77
240,23	2465,37
240,71	2486,65
241,18	2457,05
241,66	2458,72
242,13	2478,01
242,61	2474,02
243,08	2451,73
243,56	2448,74
244,03	2469,36
244,51	2483,33
244,98	2450,07
245,46	2482,33
245,93	3257,94
246,41	2422,13
246,88	2459,05
247,36	2456,72
247,83	2455,39
248,31	2459,72
248,78	2433,11
249,26	2456,72
249,73	2472,69
250,21	2470,36
250,68	2476,01
251,16	2454,73
251,63	2476,34
252,10	2482,00
252,58	2452,40
253,05	2479,34
253,53	2453,40
254,00	2453,73
254,48	2452,07
254,95	2461,71
255,43	2471,02
255,90	2442,75
256,38	2457,05
256,85	2470,36
257,33	2483,00
257,80	2501,62
258,27	2476,68
258,75	2454,06
259,22	2464,70
259,70	2472,35
260,17	2489,65
260,65	2462,38
261,12	2458,05
261,59	2480,00
262,07	2450,40
262,54	2478,01
263,02	2455,06
263,49	2442,42
263,97	2467,37
264,44	2483,99
264,91	2457,72
265,39	2464,70
265,86	2471,02
266,34	2472,02
266,81	2453,06
267,28	2457,72
267,76	2469,36
268,23	2465,37
268,71	2430,12
269,18	2436,77
269,65	2442,09
270,13	2465,70
270,60	2495,63
271,08	2461,38
271,55	2467,03
272,02	2454,73
272,50	2442,09
272,97	2439,10
273,44	2463,71
273,92	2530,56
274,39	2481,67
274,87	2486,99
275,34	2458,72
275,81	2465,04
276,29	2473,02
276,76	2483,00
277,23	2453,73
277,71	2476,01
278,18	2454,06
278,65	2542,53
279,13	2460,05
279,60	2461,38
280,07	2528,89
280,55	2483,66
281,02	2522,24
281,50	2461,05
281,97	2495,30
282,44	2465,04
282,91	2468,36
283,39	2476,01
283,86	2468,36
284,33	2450,07
284,81	2485,66
285,28	2463,04
285,75	2477,68
286,23	2483,00
286,70	2467,70
287,17	2487,32
287,65	2498,96
288,12	2466,37
288,59	2485,32
289,07	2457,72
289,54	2507,94
290,01	2462,71
290,48	2476,01
290,96	2478,01
291,43	2496,63
291,90	2520,25
292,38	2468,03
292,85	2516,59
293,32	2498,30
293,79	2522,91
294,27	2532,22
294,74	2528,56
295,21	2566,14
295,69	2569,14
296,16	2624,01
296,63	2624,01
297,10	2615,03
297,58	2625,34
298,05	2648,29
298,52	2640,64
298,99	2700,17
299,47	2661,59
299,94	2707,49
300,41	2694,85
300,88	2730,77
301,36	2735,43
301,83	2760,37
302,30	2747,73
302,77	2762,04
303,25	2785,32
303,72	2757,05
304,19	2780,66
304,66	2784,32
305,13	2785,32
305,61	2822,23
306,08	2804,61
306,55	2823,23
307,02	2831,88
307,49	2856,16
307,97	2855,16
308,44	2840,19
308,91	2873,12
309,38	2885,43
309,86	2873,12
310,33	2878,44
310,80	2886,76
311,27	2896,40
311,74	2960,93
312,21	3053,06
312,69	3106,61
313,16	2950,62
313,63	2915,69
314,10	2895,07
314,57	2899,40
315,05	2881,77
315,52	2918,35
315,99	2906,38
316,46	2892,74
316,93	2893,08
317,40	2889,09
317,88	2938,98
318,35	2899,73
318,82	2897,07
319,29	2876,11
319,76	2915,03
320,23	2928,00
320,70	2907,38
321,18	2886,43
321,65	2868,13
322,12	2851,50
322,59	2880,77
323,06	2835,87
323,53	2876,11
324,00	2794,30
324,48	2837,20
324,95	2817,58
325,42	2807,27
325,89	2800,62
326,36	2811,59
326,83	2838,86
327,30	2829,88
327,77	2866,80
328,24	2830,22
328,72	2821,57
329,19	2797,62
329,66	2809,93
330,13	2778,33
330,60	2767,36
331,07	2769,35
331,54	2772,35
332,01	2719,13
332,48	2790,97
332,95	2777,00
333,43	2780,99
333,90	2813,59
334,37	2795,96
334,84	2814,25
335,31	2867,13
335,78	2778,33
336,25	2791,97
336,72	2749,73
337,19	2750,40
337,66	2714,81
338,13	2720,13
338,60	2745,07
339,07	2712,81
339,54	2687,87
340,01	2693,19
340,49	2673,57
340,96	2715,14
341,43	2701,17
341,90	2675,23
342,37	2697,51
342,84	2676,89
343,31	2667,58
343,78	2668,91
344,25	2657,94
344,72	2632,99
345,19	2653,28
345,66	2655,27
346,13	2640,31
346,60	2626,01
347,07	2656,61
347,54	2603,72
348,01	2643,30
348,48	2623,01
348,95	2596,74
349,42	2612,04
349,89	2636,98
350,36	2611,37
350,83	2589,09
351,30	2602,73
351,77	2629,00
352,24	2605,39
352,71	2585,43
353,18	2586,43
353,65	2597,41
354,12	2594,41
354,59	2581,11
355,06	2570,13
355,53	2599,07
356,00	2570,80
356,47	2597,74
356,94	2555,50
357,41	2606,38
357,88	2575,12
358,35	2541,53
358,82	2542,86
359,28	2552,17
359,75	2552,84
360,22	2560,82
360,69	2576,78
361,16	2551,51
361,63	2542,86
362,10	2554,83
362,57	2553,84
363,04	2581,44
363,51	2649,29
363,98	2677,89
364,45	2822,23
364,92	2902,39
365,39	2680,55
365,86	2575,79
366,32	2569,80
366,79	2541,20
367,26	2880,11
367,73	2490,65
368,20	2508,27
368,67	2545,52
369,14	2508,94
369,61	2531,89
370,08	2535,88
370,55	2516,92
371,02	2881,77
371,48	2513,59
371,95	2500,29
372,42	2490,31
372,89	2514,92
373,36	2515,59
373,83	2492,31
374,30	2496,30
374,77	2518,25
375,23	2494,30
375,70	2543,19
376,17	2496,63
376,64	2488,32
377,11	2492,97
377,58	2524,57
378,05	2506,61
378,51	2504,28
378,98	2510,60
379,45	2503,62
379,92	2515,92
380,39	2555,50
380,86	2495,97
381,33	2527,56
381,79	2531,22
382,26	2466,70
382,73	2505,28
383,20	2504,28
383,67	2500,96
384,14	2490,98
384,60	2606,72
385,07	2507,61
385,54	2487,65
386,01	2498,63
386,48	2524,24
386,94	2472,02
387,41	2479,67
387,88	2497,63
388,35	2499,29
388,82	2525,90
389,28	2491,98
389,75	2510,60
390,22	2504,95
390,69	2526,56
391,16	2498,96
391,62	2499,63
392,09	2497,96
392,56	2489,98
393,03	2508,61
393,50	2558,16
393,96	2520,25
394,43	2524,90
394,90	2487,99
395,37	2521,58
395,83	2602,73
396,30	2489,98
396,77	2520,91
397,24	2530,22
397,70	2498,30
398,17	2525,23
398,64	2529,89
399,11	2518,25
399,57	2568,14
400,04	2527,23
400,51	2554,50
400,98	2551,51
401,44	2576,12
401,91	2584,10
402,38	2640,97
402,84	2777,67
403,31	3070,35
403,78	3389,33
404,25	4040,34
404,71	3659,43
405,18	2875,12
405,65	2710,48
406,12	2727,11
406,58	2752,72
407,05	2824,90
407,52	2856,82
407,98	2824,90
408,45	2836,54
408,92	2843,19
409,38	2892,74
409,85	2930,33
410,32	3009,82
410,78	2999,51
411,25	3106,61
411,72	3154,50
412,18	3194,08
412,65	3310,83
413,12	3372,03
413,59	3470,49
414,05	3572,61
414,52	3676,73
414,98	3765,88
415,45	3879,98
415,92	3999,08
416,38	4120,19
416,85	4312,17
417,32	4469,22
417,78	4584,70
418,25	4797,69
418,72	4999,07
419,18	5203,80
419,65	5395,91
420,12	5596,71
420,58	5868,18
421,05	6116,39
421,51	6400,33
421,98	6663,36
422,45	6929,16
422,91	7276,47
423,38	7623,31
423,85	7925,90
424,31	8298,19
424,78	8648,99
425,24	8995,02
425,71	9431,43
426,18	9773,01
426,64	10237,05
427,11	10663,30
427,57	11077,24
428,04	11442,11
428,51	12031,60
428,97	12442,03
429,44	12911,78
429,90	13571,55
430,37	14088,03
430,83	14592,41
431,30	15226,65
431,77	15786,06
432,23	16520,14
432,70	17156,87
433,16	17876,59
433,63	18842,40
434,09	20452,47
434,56	23283,72
435,03	27005,99
435,49	30434,67
435,96	27982,42
436,42	25019,06
436,89	25308,54
437,35	26338,08
437,82	27352,13
438,28	28352,62
438,75	29571,56
439,21	30688,66
439,68	31614,26
440,14	32785,04
440,61	33821,53
441,07	34628,02
441,54	35576,76
442,00	36090,43
442,47	36647,77
442,94	37029,53
443,40	37316,23
443,87	37217,65
444,33	37264,06
444,80	36787,21
445,26	36297,56
445,73	35692,93
446,19	34799,79
446,65	33952,28
447,12	32823,53
447,58	31698,89
448,05	30468,72
448,51	29270,06
448,98	28006,41
449,44	26842,70
449,91	25660,33
450,37	24623,71
450,84	23397,10
451,30	22360,15
451,77	21537,46
452,23	20562,54
452,70	19827,28
453,16	19082,92
453,62	18349,16
454,09	17732,04
454,55	17174,69
455,02	16621,04
455,48	16104,22
455,95	15713,74
456,41	15267,19
456,88	14800,85
457,34	14389,88
457,80	14020,49
458,27	13616,28
458,73	13303,28
459,20	12968,26
459,66	12482,89
460,13	12129,10
460,59	11741,62
461,05	11369,38
461,52	11092,38
461,98	10666,67
462,45	10321,33
462,91	10001,78
463,37	9631,52
463,84	9312,49
464,30	8958,87
464,76	8602,50
465,23	8369,07
465,69	8124,38
466,16	7847,73
466,62	7613,62
467,08	7389,61
467,55	7122,98
468,01	6916,82
468,48	6789,41
468,94	6590,01
469,40	6424,99
469,87	6319,67
470,33	6151,04
470,79	6025,42
471,26	5881,17
471,72	5780,57
472,18	5680,98
472,65	5594,38
473,11	5515,46
473,57	5410,56
474,04	5344,30
474,50	5258,07
474,96	5192,15
475,43	5124,23
475,89	5048,00
476,35	4979,09
476,82	4921,18
477,28	4866,26
477,74	4817,00
478,21	4755,42
478,67	4710,83
479,13	4627,29
479,59	4657,91
480,06	4568,39
480,52	4527,46
480,98	4473,88
481,45	4464,23
481,91	4431,95
482,37	4405,00
482,84	4382,71
483,30	4378,38
483,76	4354,42
484,22	4410,66
484,69	4384,04
485,15	4401,01
485,61	4391,03
486,07	4408,66
486,54	4410,66
487,00	4468,56
487,46	4475,21
487,92	4538,44
488,39	4601,34
488,85	4667,89
489,31	4709,16
489,77	4764,41
490,24	4825,32
490,70	4932,49
491,16	5034,35
491,62	5087,28
492,09	5157,19
492,55	5292,03
493,01	5351,63
493,47	5418,55
493,94	5537,10
494,40	5700,63
494,86	5794,22
495,32	5908,48
495,78	6049,41
496,25	6201,03
496,71	6366,66
497,17	6528,67
497,63	6635,36
498,09	6780,07
498,56	6932,16
499,02	7093,95
499,48	7346,56
499,94	7480,41
500,40	7649,68
500,87	7803,31
501,33	8029,48
501,79	8248,38
502,25	8425,24
502,71	8698,17
503,17	8749,36
503,64	9017,45
504,10	9170,81
504,56	9423,72
505,02	9591,63
505,48	9783,41
505,94	9989,03
506,40	10190,73
506,87	10430,14
507,33	10640,12
507,79	10803,47
508,25	11087,33
508,71	11248,19
509,17	11481,86
509,63	11686,02
510,10	11872,09
510,56	12053,53
511,02	12348,83
511,48	12500,12
511,94	12645,73
512,40	12890,81
512,86	13023,39
513,32	13255,88
513,78	13450,60
514,25	13617,97
514,71	14026,60
515,17	13957,39
515,63	14140,98
516,09	14346,74
516,55	14517,30
517,01	14693,39
517,47	14782,83
517,93	14993,09
518,39	15271,96
518,85	15353,72
519,32	15583,12
519,78	15640,06
520,24	15813,70
520,70	15998,70
521,16	16136,66
521,62	16304,08
522,08	16373,12
522,54	16588,54
523,00	16684,33
523,46	16795,56
523,92	16862,31
524,38	17158,58
524,84	17219,58
525,30	17321,05
525,76	17393,74
526,22	17558,73
526,68	17524,08
527,14	17646,92
527,60	17802,08
528,06	17970,02
528,52	17907,16
528,98	18041,14
529,44	18038,74
529,90	18217,12
530,36	18282,10
530,82	18327,84
531,28	18366,71
531,74	18469,22
532,20	18474,38
532,66	18594,83
533,12	18674,00
533,58	18794,52
534,04	18784,54
534,50	18768,01
534,96	18901,31
535,42	18887,87
535,88	18953,68
536,34	19057,41
536,80	19022,25
537,26	19172,90
537,72	19259,11
538,18	19187,72
538,64	19243,24
539,10	19274,97
539,56	19415,38
540,02	19245,66
540,48	19429,18
540,94	19365,01
541,40	19380,19
541,86	19481,98
542,32	19536,51
542,78	19479,22
543,24	19630,76
543,69	19518,22
544,15	19613,84
544,61	19965,50
545,07	21404,86
545,53	25744,55
545,99	25337,29
546,45	21424,29
546,91	20120,71
547,37	19893,62
547,83	19816,22
548,29	19739,54
548,74	19757,50
549,20	19715,02
549,66	19752,32
550,12	19808,62
550,58	19839,02
551,04	19776,50
551,50	19860,79
551,96	19905,36
552,42	19880,83
552,87	19841,10
553,33	19853,53
553,79	19902,94
554,25	19925,41
554,71	19938,19
555,17	19861,14
555,63	19989,34
556,08	20003,17
556,54	20063,66
557,00	19994,18
557,46	20082,68
557,92	20084,75
558,38	20080,60
558,83	20113,80
559,29	20108,26
559,75	20149,41
560,21	20148,03
560,67	20197,13
561,13	20158,75
561,58	20264,58
562,04	20150,10
562,50	20251,09
562,96	20195,06
563,42	20340,35
563,87	20282,92
564,33	20310,59
564,79	20301,60
565,25	20372,18
565,71	20353,84
566,16	20307,13
566,62	20451,08
567,08	20402,98
567,54	20482,58
568,00	20495,39
568,45	20506,81
568,91	20568,08
569,37	20594,40
569,83	20567,39
570,28	20567,74
570,74	20623,83
571,20	20664,69
571,66	20700,71
572,11	20658,81
572,57	20819,18
573,03	20777,26
573,49	20819,88
573,94	20871,85
574,40	20959,19
574,86	21043,77
575,32	21030,94
575,77	21077,40
576,23	21562,11
576,69	22318,05
577,15	21740,96
577,60	21451,37
578,06	21620,44
578,52	22118,40
578,97	22337,53
579,43	21761,45
579,89	21640,23
580,34	21700,32
580,80	21753,11
581,26	21754,50
581,72	21875,07
582,17	21925,80
582,63	22002,27
583,09	22139,96
583,54	22192,47
584,00	22306,91
584,46	22321,53
584,91	22464,90
585,37	22624,69
585,83	22655,33
586,28	22714,54
586,74	22847,26
587,20	23007,56
587,65	23053,58
588,11	23162,70
588,57	23316,16
589,02	23552,75
589,48	23591,50
589,94	23689,26
590,39	23961,01
590,85	24104,65
591,30	24239,25
591,76	24345,56
592,22	24432,31
592,67	24662,57
593,13	24842,52
593,59	25072,31
594,04	25131,53
594,50	25367,10
594,95	25577,53
595,41	25863,19
595,87	25953,77
596,32	26307,15
596,78	26442,82
597,23	26611,94
597,69	26769,52
598,15	27049,29
598,60	27388,06
599,06	27564,24
599,51	27884,01
599,97	28264,72
600,43	28434,53
600,88	28704,75
601,34	29031,69
601,79	29232,21
602,25	29597,75
602,70	29792,50
603,16	30024,53
603,61	30398,50
604,07	30640,05
604,53	30969,06
604,98	31277,34
605,44	31543,87
605,89	31800,60
606,35	32052,48
606,80	32444,79
607,26	32832,80
607,71	33146,22
608,17	33499,10
608,62	33831,17
609,08	34281,09
609,53	34595,82
609,99	34917,56
610,44	35245,26
610,90	35721,98
611,35	36086,12
611,81	36707,06
612,26	36987,82
612,72	37340,70
613,17	37909,61
613,63	38235,79
614,08	38682,35
614,54	39162,56
614,99	39367,43
615,45	40057,11
615,90	40545,95
616,36	40860,16
616,81	41347,99
617,27	41665,97
617,72	42171,31
618,18	42579,65
618,63	43042,56
619,09	43493,48
619,54	43876,95
619,99	44315,06
620,45	44927,73
620,90	45325,31
621,36	45822,29
621,81	46296,58
622,27	46663,51
622,72	47057,38
623,18	47596,31
623,63	47996,90
624,08	48446,51
624,54	48819,59
624,99	49353,38
625,45	49731,57
625,90	50108,06
626,35	50632,91
626,81	51033,95
627,26	51376,22
627,72	51947,95
628,17	52296,31
628,62	52515,09
629,08	52904,46
629,53	53226,49
629,99	53702,62
630,44	53993,82
630,89	54347,75
631,35	54765,56
631,80	54989,44
632,26	55331,05
632,71	55721,46
633,16	56082,47
633,62	56160,37
634,07	56614,61
634,52	56905,75
634,98	57078,71
635,43	57533,85
635,88	57741,39
636,34	58064,12
636,79	58241,12
637,24	58477,47
637,70	58717,66
638,15	58993,99
638,60	59265,33
639,06	59492,68
639,51	59671,85
639,96	59788,63
640,42	60214,55
640,87	60458,75
641,32	60541,95
641,78	60752,53
642,23	60826,13
642,68	61099,49
643,14	61403,64
643,59	61509,02
644,04	61513,90
644,49	61797,40
644,95	61970,40
645,40	61944,06
645,85	62224,65
646,31	62365,35
646,76	62538,34
647,21	62513,77
647,66	62621,14
648,12	62551,19
648,57	62734,66
649,02	62898,72
649,47	62706,65
649,93	63107,84
650,38	62978,37
650,83	62904,78
651,28	62978,37
651,74	62880,90
652,19	62910,09
652,64	63144,70
653,09	63093,40
653,55	63046,31
654,00	63089,98
654,45	62964,33
654,90	62935,12
655,35	62746,02
655,81	62750,95
656,26	62830,49
656,71	62607,52
657,16	62791,85
657,62	62706,27
658,07	62626,81
658,52	62415,56
658,97	62313,65
659,42	62309,13
659,88	62029,49
660,33	62031,75
660,78	62159,44
661,23	61795,15
661,68	61729,77
662,13	61522,90
662,59	61097,25
663,04	60962,58
663,49	60999,23
663,94	60873,59
664,39	60705,84
664,84	60572,55
665,30	60183,25
665,75	60018,26
666,20	59725,03
666,65	59567,38
667,10	59555,11
667,55	59344,81
668,00	59228,20
668,46	58993,99
668,91	58725,08
669,36	58608,30
669,81	58182,98
670,26	58013,03
670,71	57817,98
671,16	57788,75
671,61	57621,15
672,06	57321,96
672,52	57091,64
672,97	56705,12
673,42	56393,74
673,87	56114,59
674,32	55817,05
674,77	55692,30
675,22	55404,84
675,67	55176,83
676,12	54770,35
676,57	54595,18
677,02	54146,08
677,47	53879,55
677,93	53642,18
678,38	53452,38
678,83	53075,78
679,28	53020,52
679,73	52729,11
680,18	52365,19
680,63	51869,89
681,08	51563,95
681,53	51251,45
681,98	50868,37
682,43	50575,15
682,88	50578,83
683,33	50453,40
683,78	49917,59
684,23	49584,17
684,68	49085,16
685,13	48751,28
685,58	48416,78
686,03	48101,12
686,48	47874,36
686,93	47708,91
687,38	47289,77
687,83	47169,17
688,28	46608,93
688,73	46272,05
689,18	45898,02
689,63	45521,28
690,08	45489,10
690,53	44886,45
690,98	44602,69
691,43	44211,06
691,88	43736,58
692,33	43490,57
692,78	43171,10
693,23	43090,62
693,68	42760,83
694,13	42425,08
694,58	42222,56
695,03	42153,50
695,48	41705,91
695,93	41452,87
696,38	40954,78
696,83	40548,85
697,28	39985,82
697,72	39883,06
698,17	39482,37
698,62	39306,72
699,07	39139,80
699,52	38641,57
699,97	38453,96
700,42	38079,70
700,87	37769,48
701,32	37397,20
701,77	36865,57
702,22	36584,53
702,67	36146,42
703,11	36098,68
703,56	35858,63
704,01	35519,76
704,46	35316,20
704,91	34914,70
705,36	34393,73
705,81	34118,08
706,26	33780,10
706,70	33481,61
707,15	33316,03
707,60	33105,91
708,05	32794,66
708,50	32535,62
708,95	32178,47
709,40	31606,09
709,84	31263,13
710,29	31020,55
710,74	30695,05
711,19	30532,56
711,64	30402,75
712,09	30189,67
712,53	29646,61
712,98	29420,43
713,43	28947,19
713,88	28654,58
714,33	28453,25
714,78	28164,13
715,22	27912,58
715,67	27588,91
716,12	27428,58
716,57	27166,17
717,02	26745,25
717,46	26392,21
717,91	26203,85
718,36	25789,13
718,81	25460,38
719,26	25235,63
719,70	25052,69
720,15	24733,98
720,60	24449,45
721,05	24351,51
721,49	23914,89
721,94	23677,38
722,39	23279,19
722,84	22984,21
723,28	22676,58
723,73	22486,13
724,18	22285,69
724,63	22113,53
725,07	21981,07
725,52	21711,78
725,97	21499,96
726,42	21282,03
726,86	20991,42
727,31	20788,35
727,76	20503,69
728,21	20438,28
728,65	20167,74
729,10	20028,06
729,55	19899,49
729,99	19719,16
730,44	19607,63
730,89	19458,17
731,33	19231,86
731,78	19057,41
732,23	18784,19
732,68	18545,27
733,12	18422,43
733,57	18309,96
734,02	18230,18
734,46	18127,06
734,91	17963,15
735,36	17844,66
735,80	17730,67
736,25	17489,43
736,70	17198,33
737,14	17070,53
737,59	16845,88
738,04	16708,97
738,48	16624,46
738,93	16489,02
739,37	16284,26
739,82	16234,71
740,27	15978,90
740,71	15782,99
741,16	15709,30
741,61	15408,24
742,05	15195,66
742,50	15056,40
742,94	14891,00
743,39	14719,23
743,84	14621,99
744,28	14587,99
744,73	14366,79
745,18	14186,80
745,62	14056,80
746,07	13906,84
746,51	13641,36
746,96	13520,04
747,40	13395,05
747,85	13208,83
748,30	13065,35
748,74	12996,33
749,19	12919,22
749,63	12858,35
750,08	12699,12
750,52	12556,53
750,97	12355,58
751,42	12217,85
751,86	12045,43
752,31	11841,74
752,75	11779,38
753,20	11596,05
753,64	11528,34
754,09	11373,76
754,53	11288,58
754,98	11206,79
755,42	11096,41
755,87	10936,97
756,31	10798,09
756,76	10587,02
757,20	10576,27
757,65	10379,09
758,09	10286,41
758,54	10210,87
758,98	10122,92
759,43	10060,84
759,87	9916,23
760,32	9784,42
760,76	9704,94
761,21	9511,86
761,65	9450,86
762,10	9346,66
762,54	9338,29
762,99	9292,06
763,43	9328,90
763,88	9264,25
764,32	9070,35
764,77	9002,39
765,21	8879,87
765,66	8738,99
766,10	8567,04
766,54	8468,04
766,99	8320,59
767,43	8321,93
767,88	8277,46
768,32	8260,75
768,77	8190,89
769,21	8202,59
769,66	8124,71
770,10	8004,42
770,54	7911,87
770,99	7826,02
771,43	7798,97
771,88	7703,45
772,32	7633,66
772,76	7577,23
773,21	7404,64
773,65	7388,95
774,10	7304,51
774,54	7261,46
774,98	7171,69
775,43	7186,04
775,87	7143,33
776,31	7045,24
776,76	6957,84
777,20	6906,48
777,65	6838,44
778,09	6720,05
778,53	6652,36
778,98	6588,68
779,42	6580,01
779,86	6548,34
780,31	6454,66
780,75	6479,33
781,19	6365,33
781,64	6298,67
782,08	6264,68
782,52	6168,03
782,97	6127,05
783,41	6030,09
783,85	5956,79
784,30	5901,15
784,74	5844,52
785,18	5822,20
785,63	5755,92
786,07	5802,55
786,51	5707,29
786,95	5718,95
787,40	5609,04
787,84	5548,43
788,28	5527,11
788,73	5500,14
789,17	5393,91
789,61	5358,62
790,05	5322,33
790,50	5233,76
790,94	5241,42
791,38	5239,09
791,82	5184,49
792,27	5168,51
792,71	5106,92
793,15	5157,52
793,59	5065,64
794,04	5003,39
794,48	4887,56
794,92	4897,21
795,36	4821,66
795,81	4801,69
796,25	4763,74
796,69	4732,46
797,13	4713,82
797,57	4670,56
798,02	4675,55
798,46	4620,64
798,90	4616,31
799,34	4569,06
799,79	4562,40
800,23	4499,51
800,67	4489,86
801,11	4474,88
801,55	4476,54
801,99	4401,67
802,44	4378,38
802,88	4359,08
803,32	4351,76
803,76	4316,82
804,20	4276,90
804,64	4197,71
805,09	4229,98
805,53	4187,06
805,97	4119,85
806,41	4083,26
806,85	4072,94
807,29	4027,36
807,74	4018,71
808,18	3995,42
808,62	4026,03
809,06	4013,72
809,50	4031,69
809,94	4017,38
810,38	4135,49
810,82	4166,77
811,27	4132,16
811,71	4116,19
812,15	3881,65
812,59	3787,17
813,03	3796,82
813,47	3735,61
813,91	3706,33
814,35	3750,58
814,79	3707,66
815,23	3709,66
815,67	3660,10
816,12	3678,39
816,56	3674,40
817,00	3652,78
817,44	3597,56
817,88	3596,23
818,32	3545,33
818,76	3514,07
819,20	3532,69
819,64	3493,11
820,08	3487,45
820,52	3485,46
820,96	3458,85
821,40	3438,89
821,84	3466,17
822,28	3442,22
822,72	3414,28
823,16	3419,60
823,60	3381,01
824,04	3388,00
824,48	3366,71
824,92	3366,05
825,36	3346,42
825,80	3299,85
826,24	3301,85
826,68	3314,82
827,12	3289,54
827,56	3297,53
828,00	3305,84
828,44	3260,94
828,88	3277,24
829,32	3263,93
829,76	3216,03
830,20	3259,61
830,64	3196,74
831,08	3222,02
831,52	3169,80
831,96	3162,15
832,40	3125,56
832,84	3127,56
833,28	3136,87
833,72	3171,46
834,16	3132,88
834,60	3136,21
835,04	3105,28
835,48	3125,90
835,91	3077,00
836,35	3075,67
836,79	3025,78
837,23	3048,73
837,67	3019,80
838,11	3022,79
838,55	3041,42
838,99	3030,11
839,43	3059,38
839,87	3118,25
840,30	3067,03
840,74	3134,88
841,18	3085,98
841,62	3101,95
842,06	3068,36
842,50	3122,24
842,94	3042,41
843,38	2970,57
843,81	2949,95
844,25	2935,65
844,69	2909,71
845,13	2927,00
845,57	2917,36
846,01	2922,68
846,45	2898,07
846,88	2897,40
847,32	2900,73
847,76	2911,37
848,20	2894,74
848,64	2870,79
849,08	2898,73
849,51	2904,72
849,95	2872,79
850,39	2855,49
850,83	2875,78
851,27	2829,22
851,70	2854,50
852,14	2879,11
852,58	2835,54
853,02	2814,25
853,46	2831,55
853,89	2796,96
854,33	2839,20
854,77	2803,94
855,21	2800,62
855,65	2833,54
856,08	2821,24
856,52	2802,94
856,96	2778,00
857,40	2770,68
857,83	2736,43
858,27	2778,00
858,71	2729,77
859,15	2724,79
859,58	2746,74
860,02	2743,74
860,46	2739,75
860,89	2765,36
861,33	2731,10
861,77	2738,42
862,21	2757,05
862,64	2713,15
863,08	2709,82
863,52	2741,08
863,95	2703,50
864,39	2705,50
864,83	2706,16
865,27	2684,21
865,70	2704,17
866,14	2660,60
866,58	2696,85
867,01	2688,87
867,45	2688,53
867,89	2686,54
868,32	2665,25
868,76	2696,18
869,20	2679,22
869,63	2700,51
870,07	2714,48
870,51	2651,62
870,94	2655,61
871,38	2623,01
871,82	2634,32
872,25	2638,98
872,69	2644,96
873,13	2638,98
873,56	2654,28
874,00	2666,92
874,43	2648,29
874,87	2616,03
875,31	2662,26
875,74	2610,04
876,18	2640,31
876,61	2635,98
877,05	2621,68
877,49	2619,36
877,92	2610,04
878,36	2617,03
878,79	2605,39
879,23	2624,01
879,67	2595,74
880,10	2571,80
880,54	2590,42
880,97	2613,70
881,41	2612,37
881,84	2600,40
882,28	2609,05
882,72	2614,37
883,15	2598,40
883,59	2575,12
884,02	2616,03
884,46	2582,77
884,89	2595,41
885,33	2597,41
885,76	2576,12
886,20	2569,47
886,63	2607,05
887,07	2566,81
887,50	2542,20
887,94	2577,45
888,37	2545,85
888,81	2637,32
889,24	2553,50
889,68	2589,42
890,11	2562,15
890,55	2567,14
890,98	2581,77
891,42	2539,54
891,85	2562,82
892,29	2567,47
892,72	2535,21
893,16	2538,21
893,59	2547,18
894,03	2525,90
894,46	2559,16
894,90	2540,20
895,33	2530,22
895,77	2536,87
896,20	2570,13
896,63	2537,54
897,07	2529,56
897,50	2537,54
897,94	2565,48
898,37	2560,16
898,81	2541,86
899,24	2524,24
899,68	2530,56
900,11	2555,50
900,54	2538,54
900,98	2521,24
901,41	2559,16
901,85	2568,80
902,28	2521,58
902,71	2513,26
903,15	2555,50
903,58	2516,92
904,02	2544,19
904,45	2518,92
904,88	2512,26
905,32	2507,94
905,75	2553,17
906,18	2532,22
906,62	2556,83
907,05	2532,88
907,48	2525,23
907,92	2536,21
908,35	2550,84
908,79	2512,93
909,22	2505,61
909,65	2531,22
910,09	2529,23
910,52	2562,82
910,95	2567,81
911,38	2556,83
911,82	2620,02
912,25	2625,67
912,68	2555,17
913,12	2549,51
913,55	2524,57
913,98	2497,63
914,42	2501,95
914,85	2500,96
915,28	2487,32
915,72	2514,59
916,15	2500,29
916,58	2522,57
917,01	2495,63
917,45	2526,56
917,88	2496,30
918,31	2503,28
918,74	2505,94
919,18	2499,29
919,61	2511,27
920,04	2506,61
920,47	2543,19
920,91	2535,88
921,34	2506,61
921,77	2503,95
922,20	2514,59
922,64	2512,93
923,07	2542,53
923,50	2509,94
923,93	2479,67
924,37	2497,63
924,80	2476,34
925,23	2501,62
925,66	2522,91
926,09	2470,03
926,53	2506,28
926,96	2466,37
927,39	2526,56
927,82	2483,33
928,25	2479,01
928,69	2496,96
929,12	2481,67
929,55	2495,97
929,98	2499,96
930,41	2474,02
930,84	2483,66
931,28	2454,39
931,71	2512,26
932,14	2505,61
932,57	2536,21
933,00	2476,34
933,43	2490,31
933,86	2498,96
934,30	2498,96
934,73	2481,00
935,16	2453,73
935,59	2469,03
936,02	2469,36
936,45	2482,00
936,88	2456,72
937,31	2473,35
937,75	2464,37
938,18	2468,03
938,61	2473,35
939,04	2450,40
939,47	2465,70
939,90	2486,99
940,33	2511,60
940,76	2441,76
941,19	2469,69
941,62	2443,09
942,05	2457,72
942,48	2475,01
942,91	2445,75
943,35	2425,46
943,78	2478,34
944,21	2476,68
944,64	2477,34
945,07	2448,74
945,50	2451,07
945,93	2456,06
946,36	2480,34
946,79	2447,74
947,22	2468,70
947,65	2467,37
948,08	2437,77
948,51	2434,11
948,94	2441,42
949,37	2497,63
949,80	2475,01
950,23	2448,74
950,66	2442,09
951,09	2454,73
951,52	2428,12
951,95	2468,70
952,38	2443,42
952,81	2483,66
953,24	2440,43
953,67	2448,41
954,10	2455,72
954,53	2446,08
954,96	2449,07
955,39	2470,03
955,82	2440,09
956,25	2462,38
956,68	2516,92
957,11	2419,81
957,53	2464,04
957,96	2473,35
958,39	2449,07
958,82	2452,40
959,25	2436,43
959,68	2434,44
960,11	2455,72
960,54	2468,36
960,97	2468,03
961,40	2473,68
961,83	2477,68
962,26	2445,75
962,68	2474,02
963,11	2458,72
963,54	2469,69
963,97	2462,38
964,40	2451,07
964,83	2494,97
965,26	2470,69
965,69	2469,03
966,11	2475,01
966,54	2434,77
966,97	2457,39
967,40	2483,00
967,83	2538,87
968,26	2460,38
968,69	2456,39
969,11	2455,39
969,54	2435,44
969,97	2437,10
970,40	2463,71
970,83	2447,08
971,26	2449,74
971,68	2434,44
972,11	2441,42
972,54	2442,42
972,97	2468,70
973,40	2446,41
973,82	2472,35
974,25	2460,38
974,68	2440,43
975,11	2439,76
975,54	2441,42
975,96	2450,74
976,39	2439,10
976,82	2461,05
977,25	2449,41
977,67	2458,72
978,10	2451,73
978,53	2445,08
978,96	2459,05
979,38	2460,71
979,81	2428,12
980,24	2462,71
980,67	2477,01
981,09	2438,43
981,52	2451,40
981,95	2447,08
982,38	2448,08
982,80	2434,44
983,23	2464,04
983,66	2456,06
984,08	2435,44
984,51	2419,81
984,94	2448,08
985,37	2450,07
985,79	2444,75
986,22	2431,78
986,65	2459,72
987,07	2428,45
987,50	2445,08
987,93	2447,41
988,35	2448,08
988,78	2441,09
989,21	2445,75
989,63	2454,73
990,06	2442,42
990,49	2450,74
990,91	2476,01
991,34	2446,08
991,77	2425,13
992,19	2434,11
992,62	2439,10
993,05	2431,45
993,47	2452,40
993,90	2466,70
994,32	2440,76
994,75	2448,08
995,18	2418,81
995,60	2425,46
996,03	2421,80
996,45	2473,35
996,88	2453,73
997,31	2440,76
997,73	2441,76
998,16	2424,46
998,58	2474,68
999,01	2446,08
999,44	2452,73
999,86	2473,02
1000,29	2436,10
1000,71	2462,04
1001,14	2460,38
1001,56	2434,11
1001,99	2444,42
1002,41	2441,09
1002,84	2462,38
1003,27	2428,79
1003,69	2447,08
1004,12	2446,08
1004,54	2473,02
1004,97	2448,08
1005,39	2436,77
1005,82	2468,70
1006,24	2446,74
1006,67	2438,76
1007,09	2438,10
1007,52	2447,74
1007,94	2458,39
1008,37	2534,55
1008,79	2483,33
1009,22	2477,68
1009,64	2472,69
1010,07	2481,33
1010,49	2508,94
1010,92	2510,93
1011,34	2592,08
1011,77	2581,44
1012,19	2547,85
1012,62	2606,72
1013,04	2661,59
1013,46	2631,00
1013,89	2517,92
1014,31	2511,27
1014,74	2478,01
1015,16	2475,68
1015,59	2455,72
1016,01	2473,68
1016,44	2452,07
1016,86	2811,92
1017,28	2445,41
1017,71	2432,44
1018,13	2513,93
1018,56	2475,35
1018,98	2468,70
1019,40	2443,75
1019,83	2440,09
1020,25	2451,07
1020,68	2438,10
1021,10	2451,73
1021,52	2437,43
1021,95	2518,58
1022,37	2472,35
1022,79	2449,74
1023,22	2453,40
1023,64	2440,43
1024,07	2457,72
1024,49	2463,71
1024,91	2424,79
1025,34	2425,79
1025,76	2477,34
1026,18	2450,40
1026,61	2448,08
1027,03	2448,08
1027,45	2447,41
1027,88	2433,44
1028,30	2498,96
1028,72	2440,43
1029,15	2443,09
1029,57	2449,74
1029,99	2474,68
1030,41	2426,79
1030,84	2449,74
1031,26	2446,08
1031,68	2432,78
1032,11	2476,01
1032,53	2428,45
1032,95	2425,79
1033,37	2443,09
1033,80	2440,43
1034,22	2417,15
1034,64	2479,01
1035,06	2431,11
1035,49	2421,80
1035,91	2451,07
1036,33	2416,48
1036,75	2435,44
1037,18	2457,39
1037,60	2448,74
1038,02	2456,72
1038,44	2461,71
1038,87	2433,77
1039,29	2444,08
1039,71	2439,10
1040,13	2442,09
1040,55	2465,37
1040,98	2461,38
1041,40	2440,76
1041,82	2456,72
1042,24	2429,45
1042,66	2449,41
1043,09	2429,78
1043,51	2437,43
1043,93	2432,78
1044,35	2432,11
1044,77	2451,40
1045,20	2451,07
1045,62	2432,44
1046,04	2432,78
1046,46	2454,06
1046,88	2435,10
1047,30	2459,38
1047,72	2452,73
1048,15	2463,37
1048,57	2439,10
1048,99	2431,78
1049,41	2441,42
1049,83	2466,37
1050,25	2466,03
1050,67	2470,36
1051,09	2437,10
1051,52	2448,08
1051,94	2409,16
1052,36	2439,43
1052,78	2410,16
1053,20	2443,09
1053,62	2430,45
1054,04	2447,08
1054,46	2454,06
1054,88	2474,02
1055,30	2458,05
1055,72	2449,07
1056,14	2433,44
1056,57	2518,58
1056,99	2420,47
1057,41	2442,75
1057,83	2452,07
1058,25	2432,11
1058,67	2438,10
1059,09	2436,10
1059,51	2442,09
1059,93	2449,07
1060,35	2431,78
1060,77	2447,74
1061,19	2460,05
1061,61	2451,07
1062,03	2432,78
1062,45	2442,09
1062,87	2460,71
1063,29	2446,08
1063,71	2440,09
1064,13	2429,12
1064,55	2424,79
1064,97	2450,40
1065,39	2449,41
1065,81	2422,47
1066,23	2443,42
1066,65	2431,78
1067,07	2467,03
1067,49	2442,75
1067,91	2421,47
1068,33	2416,81
1068,75	2449,74
1069,17	2467,70
1069,59	2459,38
1070,00	2428,45
1070,42	2469,36
1070,84	2433,44
1071,26	2430,12
1071,68	2428,12
1072,10	2445,75
1072,52	2440,76
1072,94	2422,13
1073,36	2431,11
1073,78	2440,09
1074,20	2435,10
1074,62	2430,12
1075,03	2415,48
1075,45	2435,10
1075,87	2454,06
1076,29	2427,79
1076,71	2447,41
1077,13	2465,70
1077,55	2399,52
1077,97	2440,09
1078,38	2440,09
1078,80	2440,43
1079,22	2456,06
1079,64	2452,40
1080,06	2433,77
1080,48	2440,09
1080,89	2437,43
1081,31	2443,42
1081,73	2435,44
1082,15	2439,76
1082,57	2453,06
1082,99	2441,09
1083,40	2430,12
1083,82	2451,07
1084,24	2417,48
1084,66	2422,80
1085,08	2458,05
1085,49	2414,82
1085,91	2456,72
1086,33	3041,08
1086,75	2447,41
1087,17	2426,12
1087,58	2427,46
1088,00	2423,13
1088,42	2466,70
1088,84	2439,76
1089,25	2419,47
1089,67	2431,78
1090,09	2446,41
1090,51	2426,12
1090,92	2433,11
1091,34	2422,80
1091,76	2436,77
1092,18	2426,12
1092,59	2442,09
1093,01	2436,10
1093,43	2438,43
1093,84	2433,77
1094,26	2438,43
1094,68	2446,74
1095,10	2419,47
1095,51	2443,75
1095,93	2427,79
1096,35	2439,43
1096,76	2440,76
1097,18	2445,41
1097,60	2436,77
1098,01	2427,79
1098,43	2432,78
1098,85	2439,43
1099,26	2423,46
1099,68	2433,77
1100,10	2418,48
1100,51	2419,47
1100,93	2433,77
1101,35	2428,45
1101,76	2434,11
1102,18	2565,81
1102,60	2465,04
1103,01	2398,19
1103,43	2422,13
1103,84	2427,12
1104,26	2420,47
1104,68	2432,78
1105,09	2415,15
1105,51	2413,15
1105,92	2447,41
1106,34	2418,48
1106,76	2443,75
1107,17	2441,76
1107,59	2429,12
1108,00	2395,19
1108,42	2419,14
1108,83	2412,49
1109,25	2431,45
1109,67	2415,81
1110,08	2411,49
1110,50	2405,50
1110,91	2414,82
1111,33	2425,13
1111,74	2406,84
1112,16	2431,11
1112,57	2440,76
1112,99	2412,49
1113,41	2416,48
1113,82	2413,49
1114,24	2428,79
1114,65	2422,13
1115,07	2418,14
1115,48	2410,16
1115,90	2176,36
1116,31	2181,01
1116,73	2180,68
1117,14	2179,68
>>>>>End Processed Spectral Data<<<<<
