SpectraSuite Data File
++++++++++++++++++++++++++++++++++++
Date: Wed Jul 27 14:28:41 EEST 2016
User: OO Maya
Dark Spectrum Present: No
Reference Spectrum Present: No
Number of Sampled Component Spectra: 1
Spectrometers: MAYP11278
Integration Time (usec): 220000 (MAYP11278)
Spectra Averaged: 3 (MAYP11278)
Boxcar Smoothing: 0 (MAYP11278)
Correct for Electrical Dark: No (MAYP11278)
Strobe/Lamp Enabled: No (MAYP11278)
Correct for Detector Non-linearity: Yes (MAYP11278)
Correct for Stray Light: No (MAYP11278)
Number of Pixels in Processed Spectrum: 2068
>>>>>Begin Processed Spectral Data<<<<<
187,82	2286,77
188,30	2212,61
188,78	2175,69
189,26	2181,01
189,73	2424,13
190,21	2445,08
190,69	2463,37
191,17	2455,06
191,64	2496,30
192,12	2471,02
192,60	2461,71
193,07	2456,72
193,55	2463,04
194,03	2473,68
194,51	2484,33
194,98	2472,02
195,46	2498,63
195,94	2474,68
196,42	2474,68
196,89	2528,56
197,37	2468,36
197,85	2462,04
198,32	2467,37
198,80	2458,05
199,28	2484,66
199,76	2501,62
200,23	2475,01
200,71	2453,40
201,19	2477,34
201,66	2492,97
202,14	2486,99
202,62	2452,07
203,09	2476,68
203,57	2460,05
204,05	2491,31
204,53	2506,28
205,00	2472,69
205,48	2476,34
205,96	2508,27
206,43	2464,70
206,91	2481,67
207,39	2530,22
207,86	2472,69
208,34	2483,00
208,82	2471,02
209,29	2490,98
209,77	2490,31
210,25	2476,34
210,72	2482,00
211,20	2480,00
211,68	2490,65
212,15	2462,38
212,63	2504,95
213,11	2501,62
213,58	2464,04
214,06	2503,28
214,53	2487,65
215,01	2507,27
215,49	2481,67
215,96	2488,65
216,44	2491,31
216,92	2481,33
217,39	2465,70
217,87	2480,00
218,35	2486,32
218,82	2453,73
219,30	2454,73
219,77	2465,70
220,25	2486,65
220,73	2523,57
221,20	2479,34
221,68	2496,96
222,15	2460,71
222,63	2484,99
223,11	2469,03
223,58	2499,63
224,06	2480,34
224,53	2492,97
225,01	2471,02
225,49	2473,68
225,96	2456,39
226,44	2466,37
226,91	2506,28
227,39	2472,69
227,87	2510,27
228,34	2493,97
228,82	2493,97
229,29	2486,99
229,77	2479,67
230,24	2473,68
230,72	2498,30
231,20	2505,28
231,67	2474,02
232,15	2478,01
232,62	2481,00
233,10	2481,00
233,57	2483,66
234,05	2539,20
234,53	2486,32
235,00	2465,37
235,48	2477,68
235,95	2465,70
236,43	2503,62
236,90	2529,56
237,38	2472,02
237,85	2501,95
238,33	2492,64
238,80	2489,32
239,28	2487,65
239,75	2471,02
240,23	2494,30
240,71	2506,94
241,18	2488,65
241,66	2477,34
242,13	2509,27
242,61	2503,28
243,08	2459,05
243,56	2476,68
244,03	2506,61
244,51	2507,94
244,98	2484,33
245,46	2502,29
245,93	3432,57
246,41	2443,75
246,88	2479,67
247,36	2474,35
247,83	2478,67
248,31	2497,63
248,78	2445,75
249,26	2485,66
249,73	2498,30
250,21	2482,33
250,68	2505,61
251,16	2482,66
251,63	2532,22
252,10	2503,62
252,58	2474,02
253,05	2507,27
253,53	2481,67
254,00	2479,34
254,48	2493,97
254,95	2496,63
255,43	2507,61
255,90	2476,34
256,38	2518,92
256,85	2501,62
257,33	2489,32
257,80	2524,57
258,27	2489,32
258,75	2469,69
259,22	2479,01
259,70	2506,61
260,17	2524,90
260,65	2490,65
261,12	2484,33
261,59	2511,60
262,07	2469,36
262,54	2493,64
263,02	2494,30
263,49	2461,05
263,97	2507,94
264,44	2500,62
264,91	2497,30
265,39	2505,94
265,86	2510,27
266,34	2521,24
266,81	2488,65
267,28	2483,66
267,76	2493,31
268,23	2492,97
268,71	2469,03
269,18	2482,00
269,65	2480,34
270,13	2505,28
270,60	2514,92
271,08	2486,99
271,55	2491,98
272,02	2466,03
272,50	2478,01
272,97	2464,04
273,44	2495,30
273,92	2567,14
274,39	2498,63
274,87	2510,93
275,34	2470,69
275,81	2495,30
276,29	2501,62
276,76	2511,93
277,23	2471,02
277,71	2492,97
278,18	2471,69
278,65	2576,78
279,13	2477,01
279,60	2485,32
280,07	2556,50
280,55	2521,58
281,02	2553,84
281,50	2484,66
281,97	2524,90
282,44	2483,00
282,91	2491,31
283,39	2504,95
283,86	2473,35
284,33	2464,70
284,81	2510,60
285,28	2489,32
285,75	2498,96
286,23	2505,61
286,70	2468,03
287,17	2504,95
287,65	2525,23
288,12	2486,65
288,59	2497,30
289,07	2459,05
289,54	2516,25
290,01	2476,68
290,48	2513,93
290,96	2489,98
291,43	2505,61
291,90	2541,20
292,38	2490,98
292,85	2519,25
293,32	2503,95
293,79	2509,60
294,27	2517,58
294,74	2502,62
295,21	2501,62
295,69	2507,61
296,16	2534,88
296,63	2520,91
297,10	2510,27
297,58	2513,59
298,05	2514,59
298,52	2509,94
298,99	2527,23
299,47	2500,62
299,94	2504,28
300,41	2493,31
300,88	2514,26
301,36	2514,26
301,83	2517,92
302,30	2481,67
302,77	2511,27
303,25	2508,94
303,72	2480,34
304,19	2492,97
304,66	2483,99
305,13	2509,27
305,61	2507,94
306,08	2484,33
306,55	2508,61
307,02	2491,64
307,49	2496,96
307,97	2492,64
308,44	2492,31
308,91	2523,90
309,38	2521,58
309,86	2509,94
310,33	2497,96
310,80	2517,58
311,27	2491,64
311,74	2516,59
312,21	2497,30
312,69	2532,22
313,16	2478,01
313,63	2495,63
314,10	2516,59
314,57	2520,25
315,05	2521,91
315,52	2550,18
315,99	2540,20
316,46	2534,21
316,93	2543,53
317,40	2545,19
317,88	2608,05
318,35	2563,15
318,82	2573,79
319,29	2562,15
319,76	2610,04
320,23	2659,60
320,70	2642,97
321,18	2639,64
321,65	2610,71
322,12	2614,03
322,59	2648,29
323,06	2619,36
323,53	2666,92
324,00	2614,70
324,48	2621,35
324,95	2611,37
325,42	2625,67
325,89	2623,68
326,36	2644,30
326,83	2646,63
327,30	2654,94
327,77	2658,27
328,24	2651,62
328,72	2626,67
329,19	2617,03
329,66	2619,36
330,13	2630,00
330,60	2635,32
331,07	2621,35
331,54	2638,65
332,01	2610,38
332,48	2652,61
332,95	2628,67
333,43	2632,99
333,90	2662,59
334,37	2636,65
334,84	2652,61
335,31	2717,14
335,78	2622,35
336,25	2642,30
336,72	2617,03
337,19	2617,36
337,66	2588,76
338,13	2604,39
338,60	2635,98
339,07	2615,03
339,54	2585,76
340,01	2600,07
340,49	2581,44
340,96	2592,42
341,43	2611,71
341,90	2589,76
342,37	2599,07
342,84	2608,71
343,31	2597,74
343,78	2574,12
344,25	2587,09
344,72	2577,45
345,19	2570,80
345,66	2580,11
346,13	2576,78
346,60	2579,45
347,07	2621,35
347,54	2568,80
348,01	2598,74
348,48	2578,45
348,95	2542,53
349,42	2574,12
349,89	2588,09
350,36	2557,49
350,83	2545,19
351,30	2570,47
351,77	2601,06
352,24	2570,47
352,71	2555,50
353,18	2568,14
353,65	2580,44
354,12	2585,43
354,59	2584,10
355,06	2550,18
355,53	2585,76
356,00	2540,87
356,47	2576,12
356,94	2541,86
357,41	2622,35
357,88	2560,82
358,35	2537,87
358,82	2534,55
359,28	2531,55
359,75	2546,52
360,22	2566,14
360,69	2575,79
361,16	2544,19
361,63	2533,55
362,10	2552,51
362,57	2538,21
363,04	2570,47
363,51	2650,29
363,98	2640,31
364,45	2752,72
364,92	2833,88
365,39	2655,61
365,86	2576,12
366,32	2580,44
366,79	2561,15
367,26	3060,04
367,73	2513,59
368,20	2517,58
368,67	2549,18
369,14	2519,25
369,61	2550,18
370,08	2540,20
370,55	2524,57
371,02	2879,11
371,48	2524,57
371,95	2519,91
372,42	2502,62
372,89	2525,57
373,36	2523,57
373,83	2500,62
374,30	2509,94
374,77	2536,87
375,23	2494,30
375,70	2561,49
376,17	2530,22
376,64	2500,62
377,11	2507,94
377,58	2537,87
378,05	2525,90
378,51	2516,25
378,98	2514,26
379,45	2502,62
379,92	2516,59
380,39	2562,15
380,86	2528,23
381,33	2551,18
381,79	2557,83
382,26	2512,93
382,73	2529,89
383,20	2529,23
383,67	2536,87
384,14	2535,54
384,60	2626,67
385,07	2515,26
385,54	2505,61
386,01	2522,57
386,48	2558,49
386,94	2510,27
387,41	2503,62
387,88	2540,20
388,35	2539,54
388,82	2541,20
389,28	2506,28
389,75	2537,21
390,22	2531,22
390,69	2530,22
391,16	2521,91
391,62	2519,58
392,09	2522,91
392,56	2531,89
393,03	2542,20
393,50	2569,14
393,96	2518,58
394,43	2532,55
394,90	2513,59
395,37	2553,84
395,83	2635,65
396,30	2512,60
396,77	2543,19
397,24	2548,52
397,70	2527,23
398,17	2551,18
398,64	2546,19
399,11	2541,86
399,57	2585,10
400,04	2559,82
400,51	2563,15
400,98	2556,16
401,44	2591,75
401,91	2600,73
402,38	2632,66
402,84	2749,06
403,31	3001,50
403,78	3263,27
404,25	3839,07
404,71	3564,29
405,18	2873,45
405,65	2714,14
406,12	2747,07
406,58	2757,38
407,05	2829,22
407,52	2835,54
407,98	2813,25
408,45	2844,52
408,92	2835,54
409,38	2917,36
409,85	2918,35
410,32	2977,56
410,78	3001,50
411,25	3082,99
411,72	3140,86
412,18	3142,86
412,65	3250,63
413,12	3340,77
413,59	3402,63
414,05	3519,72
414,52	3630,49
414,98	3681,05
415,45	3790,83
415,92	3927,89
416,38	4046,33
416,85	4186,73
417,32	4317,49
417,78	4477,88
418,25	4624,63
418,72	4780,05
419,18	4965,11
419,65	5144,54
420,12	5423,55
420,58	5585,72
421,05	5768,91
421,51	6015,09
421,98	6274,34
422,45	6550,34
422,91	6805,42
423,38	7132,99
423,85	7417,99
424,31	7701,44
424,78	8095,31
425,24	8417,89
425,71	8741,00
426,18	9110,87
426,64	9463,26
427,11	9857,19
427,57	10227,99
428,04	10568,54
428,51	11039,56
428,97	11414,50
429,44	11875,12
429,90	12425,82
430,37	12876,94
430,83	13314,79
431,30	13835,96
431,77	14338,25
432,23	14905,63
432,70	15521,75
433,16	16221,73
433,63	17024,62
434,09	18326,47
434,56	20930,07
435,03	24203,93
435,49	27422,23
435,96	25258,76
436,42	22378,59
436,89	22533,12
437,35	23310,93
437,82	24225,26
438,28	25175,34
438,75	26185,58
439,21	27236,60
439,68	28177,19
440,14	29102,41
440,61	29871,48
441,07	30711,02
441,54	31398,15
442,00	32137,89
442,47	32588,70
442,94	33077,38
443,40	33340,29
443,87	33520,52
444,33	33530,16
444,80	33318,17
445,26	33026,39
445,73	32489,32
446,19	31757,92
446,65	31025,52
447,12	30153,52
447,58	29223,01
448,05	28130,25
448,51	27165,12
448,98	26044,72
449,44	24939,89
449,91	23926,07
450,37	22890,12
450,84	21850,39
451,30	20926,26
451,77	20091,32
452,23	19267,39
452,70	18471,97
453,16	17827,14
453,62	17199,02
454,09	16597,10
454,55	16089,19
455,02	15535,72
455,48	15108,15
455,95	14730,79
456,41	14222,11
456,88	13928,21
457,34	13505,14
457,80	13189,88
458,27	12844,15
458,73	12488,63
459,20	12103,12
459,66	11832,64
460,13	11435,38
460,59	11167,08
461,05	10830,37
461,52	10510,42
461,98	10136,01
462,45	9849,81
462,91	9495,44
463,37	9216,36
463,84	8911,34
464,30	8595,81
464,76	8292,51
465,23	8041,84
465,69	7780,26
466,16	7541,84
466,62	7300,17
467,08	7134,66
467,55	6860,45
468,01	6687,70
468,48	6544,00
468,94	6363,66
469,40	6215,69
469,87	6058,74
470,33	5949,79
470,79	5842,52
471,26	5710,95
471,72	5598,38
472,18	5516,46
472,65	5425,21
473,11	5374,27
473,57	5296,02
474,04	5210,79
474,50	5112,91
474,96	5025,03
475,43	5016,38
475,89	4922,17
476,35	4898,87
476,82	4823,99
477,28	4765,41
477,74	4733,46
478,21	4642,27
478,67	4619,31
479,13	4563,73
479,59	4527,13
480,06	4501,83
480,52	4454,91
480,98	4399,34
481,45	4363,08
481,91	4352,09
482,37	4280,22
482,84	4306,84
483,30	4277,89
483,76	4275,90
484,22	4320,82
484,69	4270,57
485,15	4284,88
485,61	4285,21
486,07	4305,84
486,54	4300,85
487,00	4374,39
487,46	4387,70
487,92	4402,34
488,39	4466,89
488,85	4564,40
489,31	4582,37
489,77	4630,95
490,24	4684,20
490,70	4757,75
491,16	4844,62
491,62	4912,19
492,09	4967,44
492,55	5081,95
493,01	5166,18
493,47	5212,12
493,94	5325,66
494,40	5428,21
494,86	5547,76
495,32	5611,37
495,78	5758,25
496,25	5856,85
496,71	6020,09
497,17	6205,02
497,63	6267,01
498,09	6411,66
498,56	6539,34
499,02	6682,04
499,48	6881,46
499,94	7000,21
500,40	7145,67
500,87	7245,77
501,33	7566,21
501,79	7686,08
502,25	7802,97
502,71	8134,07
503,17	8186,88
503,64	8388,79
504,10	8517,21
504,56	8655,68
505,02	8883,89
505,48	9063,99
505,94	9271,96
506,40	9480,69
506,87	9669,40
507,33	9806,88
507,79	10027,62
508,25	10152,80
508,71	10366,32
509,17	10504,04
509,63	10653,22
510,10	10844,83
510,56	11071,52
511,02	11256,60
511,48	11476,80
511,94	11587,29
512,40	11743,31
512,86	11942,90
513,32	12117,29
513,78	12259,03
514,25	12449,79
514,71	12898,59
515,17	12746,11
515,63	12866,46
516,09	13101,89
516,55	13251,48
517,01	13460,42
517,47	13593,23
517,93	13680,67
518,39	13860,71
518,85	13953,32
519,32	14108,05
519,78	14312,10
520,24	14406,53
520,70	14579,50
521,16	14694,75
521,62	14852,56
522,08	14872,97
522,54	15071,72
523,00	15210,99
523,46	15306,02
523,92	15418,47
524,38	15553,11
524,84	15649,95
525,30	15648,93
525,76	15750,58
526,22	15899,36
526,68	15977,87
527,14	16109,00
527,60	16221,73
528,06	16272,64
528,52	16243,94
528,98	16362,87
529,44	16524,24
529,90	16481,16
530,36	16592,99
530,82	16610,44
531,28	16746,27
531,74	16776,39
532,20	16876,69
532,66	16872,24
533,12	16930,10
533,58	17005,10
534,04	16944,14
534,50	17068,47
534,96	17135,28
535,42	17141,79
535,88	17271,00
536,34	17329,62
536,80	17334,42
537,26	17361,85
537,72	17435,58
538,18	17466,45
538,64	17438,67
539,10	17491,83
539,56	17692,22
540,02	17550,15
540,48	17618,09
540,94	17662,02
541,40	17612,26
541,86	17714,88
542,32	17784,91
542,78	17754,35
543,24	17830,23
543,69	17742,34
544,15	17940,82
544,61	18101,62
545,07	19346,38
545,53	23333,61
545,99	23295,93
546,45	19522,71
546,91	18389,75
547,37	18099,91
547,83	18066,23
548,29	17912,66
548,74	17942,54
549,20	17954,22
549,66	17997,85
550,12	17990,98
550,58	17978,95
551,04	18017,43
551,50	18031,52
551,96	18084,10
552,42	18149,05
552,87	18047,67
553,33	18097,50
553,79	18151,12
554,25	18105,75
554,71	18168,99
555,17	18167,62
555,63	18129,46
556,08	18220,21
556,54	18295,51
557,00	18225,03
557,46	18174,83
557,92	18338,50
558,38	18244,28
558,83	18268,35
559,29	18332,66
559,75	18330,59
560,21	18364,30
560,67	18356,04
561,13	18471,63
561,58	18417,96
562,04	18475,41
562,50	18404,54
562,96	18442,73
563,42	18512,23
563,87	18488,15
564,33	18561,79
564,79	18485,05
565,25	18502,94
565,71	18580,72
566,16	18573,49
566,62	18544,58
567,08	18606,53
567,54	18624,43
568,00	18638,54
568,45	18723,58
568,91	18678,82
569,37	18776,96
569,83	18783,50
570,28	18719,45
570,74	18824,49
571,20	18818,29
571,66	18916,81
572,11	19040,18
572,57	18958,50
573,03	18965,74
573,49	19058,10
573,94	19064,30
574,40	19103,94
574,86	19189,45
575,32	19169,10
575,77	19304,98
576,23	19660,80
576,69	20359,72
577,15	19913,31
577,60	19581,74
578,06	19709,49
578,52	20261,81
578,97	20415,09
579,43	19894,31
579,89	19879,10
580,34	19803,79
580,80	19868,74
581,26	19920,91
581,72	19992,80
582,17	20100,31
582,63	20059,86
583,09	20217,19
583,54	20287,76
584,00	20383,60
584,46	20445,89
584,91	20554,58
585,37	20726,69
585,83	20740,20
586,28	20824,04
586,74	20921,76
587,20	21063,18
587,65	21171,72
588,11	21158,20
588,57	21434,01
589,02	21496,49
589,48	21673,92
589,94	21763,54
590,39	22009,57
590,85	22036,69
591,30	22224,12
591,76	22336,14
592,22	22513,98
592,67	22669,96
593,13	22776,54
593,59	22995,71
594,04	23086,00
594,50	23332,56
594,95	23519,24
595,41	23628,85
595,87	23906,50
596,32	24088,92
596,78	24217,22
597,23	24359,55
597,69	24654,52
598,15	24737,83
598,60	25016,26
599,06	25350,26
599,51	25576,48
599,97	25811,94
600,43	26045,43
600,88	26412,94
601,34	26591,19
601,79	26817,37
602,25	27151,74
602,70	27303,87
603,16	27643,90
603,61	27882,25
604,07	28047,69
604,53	28461,37
604,98	28697,33
605,44	28976,53
605,89	29204,62
606,35	29482,01
606,80	29939,50
607,26	30151,40
607,71	30540,36
608,17	30696,82
608,62	31116,43
609,08	31488,42
609,53	31689,29
609,99	32119,74
610,44	32472,57
610,90	32875,58
611,35	33232,54
611,81	33772,95
612,26	34065,19
612,72	34472,76
613,17	34766,86
613,63	35086,57
614,08	35511,16
614,54	35935,77
614,99	36334,54
615,45	36795,12
615,90	37054,34
616,36	37516,70
616,81	37894,84
617,27	38356,22
617,72	38815,53
618,18	39009,41
618,63	39551,42
619,09	39913,09
619,54	40350,00
619,99	40815,21
620,45	41200,68
620,90	41721,89
621,36	42003,41
621,81	42385,80
622,27	42783,40
622,72	43222,08
623,18	43744,97
623,63	44066,23
624,08	44595,39
624,54	44757,15
624,99	45227,35
625,45	45623,67
625,90	45926,56
626,35	46409,72
626,81	46822,50
627,26	47229,65
627,72	47712,22
628,17	47926,46
628,62	48185,90
629,08	48583,09
629,53	48932,71
629,99	49324,35
630,44	49548,89
630,89	49919,06
631,35	50131,59
631,80	50420,29
632,26	50772,34
632,71	51151,72
633,16	51452,42
633,62	51687,65
634,07	51954,95
634,52	52179,57
634,98	52508,46
635,43	52761,89
635,88	52960,83
636,34	53210,64
636,79	53544,88
637,24	53679,77
637,70	54037,69
638,15	54116,95
638,60	54562,72
639,06	54544,66
639,51	54702,86
639,96	54933,74
640,42	55254,31
640,87	55428,82
641,32	55609,64
641,78	55638,05
642,23	55887,92
642,68	56051,09
643,14	56342,41
643,59	56378,23
644,04	56540,74
644,49	56736,89
644,95	56941,59
645,40	56736,15
645,85	56917,94
646,31	57041,38
646,76	57259,84
647,21	57414,03
647,66	57445,46
648,12	57381,86
648,57	57445,46
649,02	57659,62
649,47	57658,88
649,93	57782,46
650,38	57824,27
650,83	57588,97
651,28	57781,35
651,74	57712,53
652,19	57667,76
652,64	57912,35
653,09	57875,34
653,55	57922,35
654,00	57867,57
654,45	57757,30
654,90	57677,38
655,35	57534,22
655,81	57692,18
656,26	57577,50
656,71	57654,44
657,16	57571,58
657,62	57493,17
658,07	57485,03
658,52	57310,86
658,97	57014,03
659,42	57001,83
659,88	56818,54
660,33	57047,66
660,78	56916,10
661,23	56774,21
661,68	56569,55
662,13	56494,94
662,59	56199,88
663,04	56083,57
663,49	55967,29
663,94	55820,74
664,39	55727,00
664,84	55615,17
665,30	55364,62
665,75	55137,36
666,20	54901,28
666,65	54654,92
667,10	54636,85
667,55	54573,05
668,00	54273,64
668,46	54118,80
668,91	53920,84
669,36	53715,52
669,81	53465,28
670,26	53234,96
670,71	53114,10
671,16	52954,94
671,61	52757,47
672,06	52735,37
672,52	52294,47
672,97	52070,57
673,42	51714,15
673,87	51552,17
674,32	51205,82
674,77	50991,64
675,22	50880,88
675,67	50624,08
676,12	50551,24
676,57	50217,27
677,02	49780,83
677,47	49461,05
677,93	49279,52
678,38	48995,52
678,83	48799,39
679,28	48600,72
679,73	48350,70
680,18	48020,39
680,63	47616,85
681,08	47356,13
681,53	46996,55
681,98	46785,49
682,43	46489,54
682,88	46370,54
683,33	46217,88
683,78	45894,36
684,23	45510,67
684,68	45212,74
685,13	44952,20
685,58	44538,80
686,03	44273,46
686,48	44092,50
686,93	43743,51
687,38	43338,28
687,83	43220,26
688,28	42846,72
688,73	42545,82
689,18	42246,92
689,63	42030,66
690,08	41700,47
690,53	41175,65
690,98	41012,08
691,43	40630,74
691,88	40290,97
692,33	39949,27
692,78	39797,69
693,23	39505,14
693,68	39244,21
694,13	39065,03
694,58	38837,19
695,03	38738,29
695,48	38381,83
695,93	37976,99
696,38	37714,74
696,83	37310,47
697,28	36920,22
697,72	36617,23
698,17	36235,80
698,62	36051,67
699,07	35781,16
699,52	35634,49
699,97	35307,60
700,42	35129,19
700,87	34735,73
701,32	34364,04
701,77	33840,10
702,22	33514,81
702,67	33330,65
703,11	33186,88
703,56	32972,90
704,01	32771,50
704,46	32514,25
704,91	32125,08
705,36	31742,98
705,81	31442,93
706,26	31071,33
706,70	30831,33
707,15	30589,67
707,60	30385,73
708,05	30273,33
708,50	29951,19
708,95	29542,18
709,40	29306,85
709,84	28830,55
710,29	28532,71
710,74	28307,78
711,19	28177,19
711,64	27879,07
712,09	27811,01
712,53	27418,01
712,98	27196,46
713,43	26757,21
713,88	26418,22
714,33	26234,42
714,78	25910,23
715,22	25788,42
715,67	25541,75
716,12	25255,61
716,57	25118,57
717,02	24750,08
717,46	24411,67
717,91	24225,26
718,36	23855,15
718,81	23555,89
719,26	23287,21
719,70	23134,81
720,15	22769,22
720,60	22718,02
721,05	22435,31
721,49	22111,79
721,94	21822,95
722,39	21545,09
722,84	21244,56
723,28	20977,90
723,73	20761,68
724,18	20670,58
724,63	20513,39
725,07	20299,18
725,52	20080,60
725,97	19975,86
726,42	19709,84
726,86	19493,37
727,31	19214,97
727,76	18991,58
728,21	18851,70
728,65	18735,98
729,10	18617,55
729,55	18390,78
729,99	18284,51
730,44	18161,43
730,89	17992,01
731,33	17875,22
731,78	17646,23
732,23	17450,33
732,68	17241,18
733,12	17145,90
733,57	16966,74
734,02	16927,02
734,46	16868,81
734,91	16659,02
735,36	16505,09
735,80	16422,00
736,25	16215,58
736,70	15946,81
737,14	15906,19
737,59	15689,18
738,04	15520,38
738,48	15444,37
738,93	15280,47
739,37	15132,32
739,82	15038,36
740,27	14892,70
740,71	14651,91
741,16	14537,69
741,61	14418,08
742,05	14178,32
742,50	14004,21
742,94	13820,70
743,39	13700,67
743,84	13666,44
744,28	13470,58
744,73	13435,02
745,18	13230,50
745,62	13214,92
746,07	12980,10
746,51	12782,28
746,96	12587,95
747,40	12471,07
747,85	12357,27
748,30	12253,29
748,74	12179,72
749,19	12052,52
749,63	11996,19
750,08	11859,95
750,52	11777,02
750,97	11630,42
751,42	11481,86
751,86	11298,68
752,31	11106,17
752,75	11037,88
753,20	10870,38
753,64	10768,85
754,09	10667,67
754,53	10620,63
754,98	10505,04
755,42	10382,78
755,87	10256,19
756,31	10171,93
756,76	9989,37
757,20	9913,88
757,65	9756,58
758,09	9652,64
758,54	9573,19
758,98	9484,04
759,43	9448,85
759,87	9313,83
760,32	9251,19
760,76	9061,31
761,21	9047,58
761,65	8866,82
762,10	8786,84
762,54	8750,03
762,99	8805,91
763,43	8838,04
763,88	8747,02
764,32	8535,27
764,77	8407,52
765,21	8360,04
765,66	8225,99
766,10	8146,10
766,54	8012,44
766,99	7941,27
767,43	7847,06
767,88	7779,59
768,32	7817,67
768,77	7723,15
769,21	7752,88
769,66	7621,64
770,10	7563,54
770,54	7536,16
770,99	7434,34
771,43	7423,33
771,88	7379,60
772,32	7264,79
772,76	7114,97
773,21	7084,61
773,65	6966,18
774,10	6913,15
774,54	6882,13
774,98	6835,10
775,43	6813,42
775,87	6758,40
776,31	6704,71
776,76	6655,36
777,20	6567,34
777,65	6464,66
778,09	6414,33
778,53	6339,00
778,98	6281,01
779,42	6321,33
779,86	6247,68
780,31	6184,03
780,75	6159,70
781,19	6070,40
781,64	6047,75
782,08	5951,79
782,52	5895,82
782,97	5838,19
783,41	5769,58
783,85	5750,26
784,30	5627,02
784,74	5623,03
785,18	5577,73
785,63	5512,46
786,07	5556,42
786,51	5535,44
786,95	5513,79
787,40	5400,91
787,84	5366,61
788,28	5317,00
788,73	5285,37
789,17	5159,19
789,61	5135,55
790,05	5086,61
790,50	5039,68
790,94	5020,70
791,38	5028,03
791,82	4967,11
792,27	4968,78
792,71	4937,15
793,15	4976,43
793,59	4895,21
794,04	4838,63
794,48	4800,69
794,92	4746,44
795,36	4685,87
795,81	4617,97
796,25	4582,70
796,69	4593,02
797,13	4572,38
797,57	4533,78
798,02	4519,47
798,46	4501,50
798,90	4473,55
799,34	4409,99
799,79	4432,62
800,23	4372,39
800,67	4367,73
801,11	4362,41
801,55	4364,74
801,99	4261,92
802,44	4251,61
802,88	4231,65
803,32	4217,67
803,76	4191,05
804,20	4157,45
804,64	4121,85
805,09	4118,86
805,53	4061,96
805,97	4026,37
806,41	3980,79
806,85	3996,76
807,29	3895,62
807,74	3901,28
808,18	3925,23
808,62	3909,59
809,06	3935,54
809,50	3944,52
809,94	3986,44
810,38	4114,20
810,82	4178,08
811,27	4088,25
811,71	4136,16
812,15	3862,35
812,59	3746,59
813,03	3739,93
813,47	3679,39
813,91	3639,14
814,35	3644,46
814,79	3646,46
815,23	3629,16
815,67	3598,89
816,12	3562,30
816,56	3580,26
817,00	3565,96
817,44	3548,66
817,88	3543,34
818,32	3479,47
818,76	3481,47
819,20	3493,77
819,64	3427,58
820,08	3454,19
820,52	3391,32
820,96	3414,94
821,40	3411,61
821,84	3410,62
822,28	3379,02
822,72	3380,02
823,16	3356,07
823,60	3313,49
824,04	3337,77
824,48	3333,78
824,92	3308,83
825,36	3319,48
825,80	3272,58
826,24	3267,26
826,68	3256,95
827,12	3265,93
827,56	3273,24
828,00	3242,64
828,44	3202,40
828,88	3244,97
829,32	3220,36
829,76	3208,72
830,20	3212,38
830,64	3152,84
831,08	3188,43
831,52	3152,84
831,96	3149,51
832,40	3076,01
832,84	3117,58
833,28	3114,92
833,72	3130,22
834,16	3110,93
834,60	3090,31
835,04	3082,33
835,48	3114,59
835,91	3058,38
836,35	3057,71
836,79	3033,77
837,23	3039,09
837,67	3003,83
838,11	2999,84
838,55	2997,18
838,99	3008,16
839,43	3069,02
839,87	3126,56
840,30	3073,35
840,74	3129,56
841,18	3134,21
841,62	3090,31
842,06	3063,37
842,50	3129,22
842,94	3045,07
843,38	2956,27
843,81	2936,31
844,25	2906,05
844,69	2890,75
845,13	2919,02
845,57	2911,70
846,01	2915,69
846,45	2896,40
846,88	2906,38
847,32	2904,05
847,76	2871,13
848,20	2877,78
848,64	2868,80
849,08	2878,11
849,51	2887,76
849,95	2871,46
850,39	2840,19
850,83	2858,82
851,27	2825,56
851,70	2847,84
852,14	2904,05
852,58	2846,18
853,02	2824,56
853,46	2827,56
853,89	2804,61
854,33	2855,49
854,77	2787,31
855,21	2802,61
855,65	2811,59
856,08	2825,89
856,52	2779,66
856,96	2786,98
857,40	2793,96
857,83	2735,76
858,27	2770,02
858,71	2716,14
859,15	2723,79
859,58	2745,74
860,02	2754,05
860,46	2759,37
860,89	2755,72
861,33	2743,08
861,77	2747,07
862,21	2760,71
862,64	2716,14
863,08	2720,13
863,52	2750,73
863,95	2688,87
864,39	2708,49
864,83	2700,17
865,27	2680,22
865,70	2695,52
866,14	2678,89
866,58	2729,44
867,01	2697,85
867,45	2711,81
867,89	2690,20
868,32	2691,53
868,76	2696,52
869,20	2685,87
869,63	2705,83
870,07	2735,43
870,51	2650,62
870,94	2652,95
871,38	2672,24
871,82	2648,62
872,25	2665,92
872,69	2664,59
873,13	2649,29
873,56	2680,88
874,00	2672,90
874,43	2662,92
874,87	2635,32
875,31	2656,94
875,74	2611,37
876,18	2664,92
876,61	2643,30
877,05	2637,32
877,49	2643,30
877,92	2627,01
878,36	2627,34
878,79	2614,37
879,23	2647,96
879,67	2594,08
880,10	2592,08
880,54	2619,36
880,97	2631,00
881,41	2626,34
881,84	2611,71
882,28	2609,71
882,72	2602,39
883,15	2600,40
883,59	2605,05
884,02	2618,69
884,46	2614,37
884,89	2617,69
885,33	2619,36
885,76	2585,43
886,20	2589,09
886,63	2629,00
887,07	2573,13
887,50	2574,46
887,94	2585,10
888,37	2572,46
888,81	2653,61
889,24	2555,17
889,68	2606,72
890,11	2575,12
890,55	2606,38
890,98	2593,08
891,42	2566,14
891,85	2585,10
892,29	2595,74
892,72	2562,82
893,16	2558,83
893,59	2584,43
894,03	2575,12
894,46	2574,12
894,90	2564,15
895,33	2546,52
895,77	2570,47
896,20	2564,48
896,63	2561,49
897,07	2554,17
897,50	2546,85
897,94	2568,14
898,37	2597,07
898,81	2547,18
899,24	2555,83
899,68	2558,49
900,11	2578,45
900,54	2565,81
900,98	2550,18
901,41	2600,40
901,85	2597,74
902,28	2538,21
902,71	2543,86
903,15	2580,44
903,58	2554,50
904,02	2559,16
904,45	2534,88
904,88	2537,87
905,32	2519,58
905,75	2578,45
906,18	2555,17
906,62	2582,77
907,05	2569,80
907,48	2544,19
907,92	2565,14
908,35	2564,81
908,79	2543,53
909,22	2534,21
909,65	2539,87
910,09	2551,18
910,52	2594,41
910,95	2625,01
911,38	2583,44
911,82	2661,59
912,25	2689,20
912,68	2616,69
913,12	2573,79
913,55	2545,52
913,98	2532,55
914,42	2534,21
914,85	2530,89
915,28	2520,91
915,72	2557,16
916,15	2521,58
916,58	2544,86
917,01	2511,27
917,45	2536,54
917,88	2519,91
918,31	2515,59
918,74	2514,26
919,18	2527,90
919,61	2548,52
920,04	2535,21
920,47	2579,78
920,91	2552,51
921,34	2535,21
921,77	2535,88
922,20	2551,18
922,64	2560,49
923,07	2570,80
923,50	2531,89
923,93	2505,61
924,37	2525,23
924,80	2495,97
925,23	2543,86
925,66	2552,51
926,09	2505,94
926,53	2521,24
926,96	2485,32
927,39	2554,17
927,82	2494,97
928,25	2491,31
928,69	2529,89
929,12	2497,30
929,55	2521,24
929,98	2509,94
930,41	2490,98
930,84	2514,59
931,28	2477,01
931,71	2540,53
932,14	2540,53
932,57	2559,82
933,00	2500,62
933,43	2521,91
933,86	2519,25
934,30	2519,25
934,73	2497,63
935,16	2468,36
935,59	2489,32
936,02	2490,65
936,45	2510,93
936,88	2488,32
937,31	2509,27
937,75	2483,33
938,18	2491,98
938,61	2512,60
939,04	2470,36
939,47	2490,65
939,90	2518,25
940,33	2526,90
940,76	2478,34
941,19	2496,63
941,62	2470,03
942,05	2473,02
942,48	2499,63
942,91	2457,39
943,35	2463,71
943,78	2498,96
944,21	2490,31
944,64	2489,65
945,07	2496,30
945,50	2490,31
945,93	2487,99
946,36	2507,94
946,79	2468,70
947,22	2484,33
947,65	2497,63
948,08	2474,68
948,51	2469,36
948,94	2475,35
949,37	2523,90
949,80	2507,27
950,23	2480,00
950,66	2475,68
951,09	2488,32
951,52	2455,39
951,95	2505,61
952,38	2470,69
952,81	2519,91
953,24	2449,41
953,67	2470,36
954,10	2480,67
954,53	2476,34
954,96	2480,34
955,39	2499,96
955,82	2463,37
956,25	2479,67
956,68	2563,48
957,11	2471,69
957,53	2498,30
957,96	2483,66
958,39	2478,67
958,82	2487,99
959,25	2475,35
959,68	2456,39
960,11	2474,02
960,54	2500,29
960,97	2478,34
961,40	2505,61
961,83	2504,95
962,26	2481,33
962,68	2495,63
963,11	2485,99
963,54	2502,29
963,97	2507,61
964,40	2480,34
964,83	2528,56
965,26	2528,89
965,69	2513,93
966,11	2500,96
966,54	2462,04
966,97	2471,69
967,40	2502,95
967,83	2559,82
968,26	2470,36
968,69	2467,03
969,11	2483,66
969,54	2463,04
969,97	2467,70
970,40	2496,30
970,83	2477,34
971,26	2491,31
971,68	2458,05
972,11	2462,38
972,54	2461,05
972,97	2467,03
973,40	2479,67
973,82	2488,65
974,25	2478,67
974,68	2463,71
975,11	2473,68
975,54	2448,41
975,96	2496,30
976,39	2470,36
976,82	2482,33
977,25	2470,03
977,67	2477,01
978,10	2486,99
978,53	2469,36
978,96	2495,97
979,38	2484,66
979,81	2465,70
980,24	2478,34
980,67	2479,67
981,09	2471,02
981,52	2473,68
981,95	2463,71
982,38	2480,34
982,80	2479,01
983,23	2503,95
983,66	2500,62
984,08	2473,35
984,51	2452,40
984,94	2482,66
985,37	2490,31
985,79	2467,70
986,22	2458,72
986,65	2477,68
987,07	2477,68
987,50	2483,00
987,93	2453,73
988,35	2473,02
988,78	2467,70
989,21	2471,02
989,63	2484,99
990,06	2472,02
990,49	2485,99
990,91	2522,24
991,34	2485,32
991,77	2458,39
992,19	2468,70
992,62	2461,05
993,05	2456,39
993,47	2492,97
993,90	2481,00
994,32	2484,33
994,75	2468,03
995,18	2450,40
995,60	2457,05
996,03	2446,74
996,45	2485,99
996,88	2483,33
997,31	2459,05
997,73	2478,01
998,16	2455,06
998,58	2517,92
999,01	2481,33
999,44	2459,05
999,86	2492,31
1000,29	2463,04
1000,71	2485,99
1001,14	2496,30
1001,56	2483,99
1001,99	2479,67
1002,41	2465,70
1002,84	2484,33
1003,27	2466,70
1003,69	2486,32
1004,12	2475,68
1004,54	2500,62
1004,97	2474,68
1005,39	2459,72
1005,82	2493,31
1006,24	2477,01
1006,67	2473,02
1007,09	2464,04
1007,52	2477,34
1007,94	2477,34
1008,37	2559,49
1008,79	2509,60
1009,22	2504,28
1009,64	2498,63
1010,07	2516,25
1010,49	2525,57
1010,92	2536,21
1011,34	2623,68
1011,77	2593,75
1012,19	2573,46
1012,62	2620,69
1013,04	2665,25
1013,46	2636,98
1013,89	2534,55
1014,31	2523,90
1014,74	2497,96
1015,16	2510,93
1015,59	2480,00
1016,01	2502,29
1016,44	2490,65
1016,86	2739,75
1017,28	2482,00
1017,71	2460,05
1018,13	2548,52
1018,56	2518,58
1018,98	2478,01
1019,40	2476,01
1019,83	2480,00
1020,25	2473,35
1020,68	2474,02
1021,10	2490,31
1021,52	2476,68
1021,95	2543,53
1022,37	2493,31
1022,79	2492,97
1023,22	2474,68
1023,64	2471,69
1024,07	2493,31
1024,49	2495,30
1024,91	2457,05
1025,34	2459,72
1025,76	2520,91
1026,18	2495,63
1026,61	2477,01
1027,03	2454,06
1027,45	2476,68
1027,88	2453,73
1028,30	2520,91
1028,72	2467,37
1029,15	2469,69
1029,57	2460,38
1029,99	2483,99
1030,41	2439,10
1030,84	2466,70
1031,26	2483,66
1031,68	2468,03
1032,11	2493,31
1032,53	2459,38
1032,95	2463,37
1033,37	2475,35
1033,80	2474,68
1034,22	2459,05
1034,64	2511,27
1035,06	2458,39
1035,49	2446,08
1035,91	2471,69
1036,33	2447,74
1036,75	2476,34
1037,18	2491,98
1037,60	2481,33
1038,02	2493,31
1038,44	2498,63
1038,87	2463,71
1039,29	2465,04
1039,71	2472,02
1040,13	2464,70
1040,55	2493,97
1040,98	2483,66
1041,40	2478,01
1041,82	2481,00
1042,24	2469,69
1042,66	2488,65
1043,09	2449,41
1043,51	2455,39
1043,93	2462,38
1044,35	2453,40
1044,77	2470,36
1045,20	2485,66
1045,62	2460,38
1046,04	2480,34
1046,46	2501,62
1046,88	2445,08
1047,30	2488,65
1047,72	2492,31
1048,15	2484,66
1048,57	2474,35
1048,99	2475,68
1049,41	2483,33
1049,83	2475,35
1050,25	2499,63
1050,67	2495,97
1051,09	2475,68
1051,52	2466,70
1051,94	2435,44
1052,36	2463,37
1052,78	2438,43
1053,20	2471,36
1053,62	2469,69
1054,04	2480,67
1054,46	2472,69
1054,88	2512,26
1055,30	2487,65
1055,72	2486,65
1056,14	2481,00
1056,57	2553,17
1056,99	2456,72
1057,41	2469,36
1057,83	2479,01
1058,25	2471,36
1058,67	2468,03
1059,09	2453,40
1059,51	2478,01
1059,93	2480,67
1060,35	2459,72
1060,77	2485,99
1061,19	2499,96
1061,61	2469,36
1062,03	2473,02
1062,45	2463,71
1062,87	2484,66
1063,29	2481,00
1063,71	2458,05
1064,13	2452,40
1064,55	2434,44
1064,97	2496,63
1065,39	2477,34
1065,81	2469,36
1066,23	2462,71
1066,65	2461,38
1067,07	2504,28
1067,49	2472,69
1067,91	2460,71
1068,33	2444,75
1068,75	2486,65
1069,17	2493,31
1069,59	2487,65
1070,00	2466,37
1070,42	2477,01
1070,84	2464,37
1071,26	2444,08
1071,68	2448,08
1072,10	2488,65
1072,52	2459,38
1072,94	2442,09
1073,36	2462,04
1073,78	2456,72
1074,20	2463,71
1074,62	2465,04
1075,03	2447,08
1075,45	2459,38
1075,87	2490,98
1076,29	2461,05
1076,71	2487,99
1077,13	2509,94
1077,55	2439,10
1077,97	2471,69
1078,38	2458,72
1078,80	2476,68
1079,22	2473,02
1079,64	2464,37
1080,06	2460,38
1080,48	2478,67
1080,89	2464,04
1081,31	2460,71
1081,73	2468,70
1082,15	2457,05
1082,57	2483,66
1082,99	2462,71
1083,40	2465,70
1083,82	2492,97
1084,24	2453,73
1084,66	2464,37
1085,08	2477,68
1085,49	2447,08
1085,91	2464,04
1086,33	3104,61
1086,75	2466,37
1087,17	2458,72
1087,58	2454,06
1088,00	2453,73
1088,42	2488,98
1088,84	2467,03
1089,25	2453,73
1089,67	2472,02
1090,09	2457,05
1090,51	2446,08
1090,92	2467,37
1091,34	2464,04
1091,76	2462,71
1092,18	2474,68
1092,59	2459,38
1093,01	2448,41
1093,43	2453,40
1093,84	2451,40
1094,26	2463,04
1094,68	2476,34
1095,10	2436,10
1095,51	2454,06
1095,93	2446,74
1096,35	2485,66
1096,76	2480,00
1097,18	2476,34
1097,60	2464,04
1098,01	2463,37
1098,43	2455,06
1098,85	2460,71
1099,26	2467,70
1099,68	2464,70
1100,10	2467,37
1100,51	2471,69
1100,93	2464,04
1101,35	2458,39
1101,76	2455,06
1102,18	2608,38
1102,60	2477,34
1103,01	2438,76
1103,43	2468,70
1103,84	2461,05
1104,26	2448,41
1104,68	2454,73
1105,09	2428,45
1105,51	2447,08
1105,92	2492,31
1106,34	2422,47
1106,76	2469,03
1107,17	2460,38
1107,59	2477,01
1108,00	2436,43
1108,42	2454,73
1108,83	2430,45
1109,25	2443,09
1109,67	2442,42
1110,08	2438,10
1110,50	2433,77
1110,91	2431,45
1111,33	2441,76
1111,74	2449,41
1112,16	2450,40
1112,57	2466,37
1112,99	2447,41
1113,41	2456,06
1113,82	2436,10
1114,24	2465,37
1114,65	2451,40
1115,07	2445,75
1115,48	2423,46
1115,90	2167,38
1116,31	2184,67
1116,73	2179,35
1117,14	2185,67
>>>>>End Processed Spectral Data<<<<<
