SpectraSuite Data File
++++++++++++++++++++++++++++++++++++
Date: Wed Jul 27 14:26:47 EEST 2016
User: OO Maya
Dark Spectrum Present: No
Reference Spectrum Present: No
Number of Sampled Component Spectra: 1
Spectrometers: MAYP11278
Integration Time (usec): 220000 (MAYP11278)
Spectra Averaged: 3 (MAYP11278)
Boxcar Smoothing: 0 (MAYP11278)
Correct for Electrical Dark: No (MAYP11278)
Strobe/Lamp Enabled: No (MAYP11278)
Correct for Detector Non-linearity: Yes (MAYP11278)
Correct for Stray Light: No (MAYP11278)
Number of Pixels in Processed Spectrum: 2068
>>>>>Begin Processed Spectral Data<<<<<
187,82	2287,77
188,30	2210,28
188,78	2180,35
189,26	2178,02
189,73	2421,80
190,21	2450,07
190,69	2449,74
191,17	2444,08
191,64	2462,04
192,12	2453,73
192,60	2438,76
193,07	2432,44
193,55	2446,08
194,03	2446,74
194,51	2463,71
194,98	2456,72
195,46	2477,68
195,94	2449,41
196,42	2453,40
196,89	2498,63
197,37	2454,39
197,85	2434,44
198,32	2448,08
198,80	2437,77
199,28	2451,07
199,76	2465,37
200,23	2439,76
200,71	2440,09
201,19	2463,04
201,66	2460,05
202,14	2458,39
202,62	2445,41
203,09	2460,05
203,57	2436,43
204,05	2460,05
204,53	2480,34
205,00	2433,77
205,48	2431,78
205,96	2468,70
206,43	2439,76
206,91	2446,08
207,39	2493,31
207,86	2444,42
208,34	2473,02
208,82	2443,09
209,29	2448,41
209,77	2451,73
210,25	2465,70
210,72	2444,42
211,20	2472,02
211,68	2465,70
212,15	2459,38
212,63	2489,32
213,11	2469,69
213,58	2454,39
214,06	2495,63
214,53	2468,03
215,01	2474,68
215,49	2458,39
215,96	2470,03
216,44	2466,03
216,92	2471,02
217,39	2447,74
217,87	2461,38
218,35	2470,36
218,82	2440,43
219,30	2433,77
219,77	2444,42
220,25	2464,04
220,73	2496,96
221,20	2441,42
221,68	2482,33
222,15	2433,77
222,63	2462,71
223,11	2460,05
223,58	2469,36
224,06	2447,74
224,53	2434,44
225,01	2445,75
225,49	2448,41
225,96	2443,09
226,44	2456,39
226,91	2472,35
227,39	2464,04
227,87	2489,98
228,34	2479,34
228,82	2478,34
229,29	2466,70
229,77	2460,05
230,24	2452,73
230,72	2463,71
231,20	2473,35
231,67	2447,74
232,15	2457,05
232,62	2436,10
233,10	2462,71
233,57	2474,02
234,05	2530,22
234,53	2465,70
235,00	2453,06
235,48	2450,74
235,95	2448,74
236,43	2473,35
236,90	2496,63
237,38	2442,42
237,85	2456,39
238,33	2459,38
238,80	2459,38
239,28	2448,08
239,75	2435,10
240,23	2470,69
240,71	2484,99
241,18	2465,04
241,66	2459,38
242,13	2468,36
242,61	2476,68
243,08	2439,76
243,56	2454,39
244,03	2468,36
244,51	2479,67
244,98	2450,74
245,46	2489,65
245,93	3090,97
246,41	2438,43
246,88	2443,09
247,36	2459,38
247,83	2460,71
248,31	2472,02
248,78	2441,76
249,26	2456,39
249,73	2478,01
250,21	2458,39
250,68	2492,31
251,16	2462,38
251,63	2483,33
252,10	2483,00
252,58	2447,41
253,05	2479,34
253,53	2467,37
254,00	2446,41
254,48	2446,08
254,95	2478,01
255,43	2483,00
255,90	2448,08
256,38	2472,02
256,85	2471,69
257,33	2475,35
257,80	2508,61
258,27	2466,03
258,75	2449,41
259,22	2467,37
259,70	2477,01
260,17	2497,30
260,65	2453,06
261,12	2457,05
261,59	2490,98
262,07	2448,41
262,54	2475,01
263,02	2451,73
263,49	2436,10
263,97	2465,70
264,44	2486,65
264,91	2456,72
265,39	2480,34
265,86	2470,36
266,34	2475,68
266,81	2467,37
267,28	2460,05
267,76	2463,04
268,23	2483,99
268,71	2433,11
269,18	2440,09
269,65	2440,76
270,13	2474,02
270,60	2483,33
271,08	2467,70
271,55	2465,70
272,02	2461,71
272,50	2448,08
272,97	2447,08
273,44	2473,02
273,92	2537,21
274,39	2487,99
274,87	2472,35
275,34	2448,08
275,81	2460,38
276,29	2464,70
276,76	2472,02
277,23	2443,75
277,71	2456,06
278,18	2458,72
278,65	2557,16
279,13	2450,40
279,60	2454,73
280,07	2546,19
280,55	2478,34
281,02	2520,25
281,50	2454,73
281,97	2484,33
282,44	2450,07
282,91	2456,39
283,39	2472,69
283,86	2454,39
284,33	2446,08
284,81	2469,36
285,28	2464,04
285,75	2468,36
286,23	2469,69
286,70	2453,40
287,17	2464,04
287,65	2496,63
288,12	2453,06
288,59	2465,04
289,07	2437,43
289,54	2492,64
290,01	2451,40
290,48	2462,04
290,96	2453,06
291,43	2470,36
291,90	2508,61
292,38	2457,39
292,85	2481,33
293,32	2458,72
293,79	2468,36
294,27	2479,67
294,74	2452,73
295,21	2462,71
295,69	2471,36
296,16	2500,29
296,63	2487,32
297,10	2474,68
297,58	2468,36
298,05	2468,36
298,52	2450,07
298,99	2494,64
299,47	2441,42
299,94	2475,01
300,41	2441,42
300,88	2477,68
301,36	2474,02
301,83	2479,01
302,30	2450,74
302,77	2480,34
303,25	2492,97
303,72	2454,39
304,19	2460,05
304,66	2460,71
305,13	2470,03
305,61	2464,70
306,08	2460,05
306,55	2463,71
307,02	2458,72
307,49	2463,37
307,97	2477,34
308,44	2464,04
308,91	2488,98
309,38	2472,69
309,86	2483,33
310,33	2467,37
310,80	2461,38
311,27	2453,06
311,74	2479,01
312,21	2462,38
312,69	2499,96
313,16	2464,04
313,63	2459,72
314,10	2470,03
314,57	2444,08
315,05	2443,42
315,52	2477,68
315,99	2477,34
316,46	2461,71
316,93	2475,35
317,40	2471,02
317,88	2510,93
318,35	2471,02
318,82	2471,02
319,29	2442,75
319,76	2461,71
320,23	2490,31
320,70	2486,65
321,18	2471,69
321,65	2444,08
322,12	2446,41
322,59	2491,31
323,06	2471,69
323,53	2526,90
324,00	2454,06
324,48	2477,01
324,95	2452,40
325,42	2456,39
325,89	2453,73
326,36	2462,38
326,83	2475,68
327,30	2474,02
327,77	2459,72
328,24	2464,37
328,72	2463,71
329,19	2462,71
329,66	2445,08
330,13	2455,06
330,60	2480,00
331,07	2472,35
331,54	2503,95
332,01	2457,72
332,48	2499,63
332,95	2471,69
333,43	2466,37
333,90	2492,97
334,37	2479,34
334,84	2478,67
335,31	2544,19
335,78	2444,08
336,25	2468,03
336,72	2458,05
337,19	2461,05
337,66	2444,75
338,13	2462,71
338,60	2492,64
339,07	2471,36
339,54	2453,73
340,01	2449,74
340,49	2441,42
340,96	2466,03
341,43	2493,97
341,90	2464,37
342,37	2462,04
342,84	2469,03
343,31	2473,35
343,78	2447,41
344,25	2453,40
344,72	2463,04
345,19	2472,02
345,66	2497,30
346,13	2455,72
346,60	2443,75
347,07	2489,98
347,54	2451,40
348,01	2494,97
348,48	2466,37
348,95	2441,76
349,42	2456,72
349,89	2474,35
350,36	2461,71
350,83	2460,71
351,30	2469,03
351,77	2500,62
352,24	2476,68
352,71	2449,74
353,18	2477,01
353,65	2474,68
354,12	2465,70
354,59	2475,68
355,06	2466,03
355,53	2491,64
356,00	2449,07
356,47	2494,30
356,94	2449,41
357,41	2516,92
357,88	2476,01
358,35	2433,77
358,82	2455,06
359,28	2463,37
359,75	2454,06
360,22	2469,36
360,69	2486,32
361,16	2449,74
361,63	2475,35
362,10	2475,68
362,57	2473,68
363,04	2483,33
363,51	2507,61
363,98	2469,69
364,45	2442,75
364,92	2475,01
365,39	2443,09
365,86	2449,74
366,32	2468,03
366,79	2463,37
367,26	2807,93
367,73	2432,11
368,20	2450,40
368,67	2474,68
369,14	2449,07
369,61	2470,03
370,08	2468,36
370,55	2475,68
371,02	2692,86
371,48	2471,02
371,95	2465,04
372,42	2444,08
372,89	2459,05
373,36	2477,01
373,83	2440,09
374,30	2447,08
374,77	2463,04
375,23	2437,43
375,70	2481,67
376,17	2460,38
376,64	2438,43
377,11	2437,77
377,58	2471,02
378,05	2466,70
378,51	2464,70
378,98	2468,70
379,45	2466,37
379,92	2477,68
380,39	2514,59
380,86	2467,03
381,33	2482,33
381,79	2498,63
382,26	2434,77
382,73	2469,03
383,20	2462,04
383,67	2474,68
384,14	2461,38
384,60	2568,80
385,07	2463,04
385,54	2447,41
386,01	2454,39
386,48	2491,31
386,94	2450,40
387,41	2435,44
387,88	2484,33
388,35	2481,00
388,82	2488,98
389,28	2455,39
389,75	2469,69
390,22	2463,04
390,69	2472,35
391,16	2457,72
391,62	2460,71
392,09	2461,71
392,56	2435,10
393,03	2452,40
393,50	2507,94
393,96	2449,07
394,43	2478,34
394,90	2444,75
395,37	2479,34
395,83	2561,15
396,30	2449,74
396,77	2468,70
397,24	2481,33
397,70	2455,72
398,17	2467,03
398,64	2443,42
399,11	2451,40
399,57	2485,99
400,04	2454,39
400,51	2472,69
400,98	2461,71
401,44	2475,01
401,91	2459,05
402,38	2468,03
402,84	2448,08
403,31	2483,66
403,78	2467,70
404,25	2488,65
404,71	2498,96
405,18	2473,35
405,65	2437,10
406,12	2489,98
406,58	2467,70
407,05	2497,63
407,52	2464,70
407,98	2470,69
408,45	2471,36
408,92	2456,39
409,38	2486,65
409,85	2449,41
410,32	2476,68
410,78	2449,07
411,25	2477,68
411,72	2451,73
412,18	2435,44
412,65	2472,02
413,12	2456,39
413,59	2473,02
414,05	2469,03
414,52	2492,97
414,98	2458,72
415,45	2493,31
415,92	2464,04
416,38	2462,38
416,85	2486,32
417,32	2472,35
417,78	2456,39
418,25	2468,70
418,72	2461,05
419,18	2477,01
419,65	2443,75
420,12	2474,68
420,58	2449,07
421,05	2452,40
421,51	2456,39
421,98	2474,35
422,45	2467,37
422,91	2467,03
423,38	2465,04
423,85	2468,70
424,31	2446,74
424,78	2484,33
425,24	2462,38
425,71	2492,97
426,18	2465,70
426,64	2482,00
427,11	2482,66
427,57	2490,65
428,04	2445,41
428,51	2489,98
428,97	2466,37
429,44	2469,36
429,90	2479,01
430,37	2528,23
430,83	2435,10
431,30	2455,39
431,77	2489,65
432,23	2504,95
432,70	2466,03
433,16	2459,05
433,63	2467,37
434,09	2440,43
434,56	2470,36
435,03	2446,74
435,49	2481,00
435,96	2463,37
436,42	2445,75
436,89	2477,34
437,35	2477,68
437,82	2473,02
438,28	2463,37
438,75	2447,41
439,21	2541,86
439,68	2466,03
440,14	2488,65
440,61	2497,30
441,07	2449,41
441,54	2452,07
442,00	2507,27
442,47	2462,38
442,94	2467,37
443,40	2474,68
443,87	2436,10
444,33	2498,63
444,80	2468,36
445,26	2473,35
445,73	2458,39
446,19	2483,33
446,65	2457,39
447,12	2470,03
447,58	2457,72
448,05	2456,39
448,51	2464,04
448,98	2468,36
449,44	2462,71
449,91	2445,75
450,37	2443,09
450,84	2461,38
451,30	2470,36
451,77	2473,02
452,23	2452,40
452,70	2484,99
453,16	2457,05
453,62	2464,04
454,09	2464,37
454,55	2460,71
455,02	2469,03
455,48	2474,35
455,95	2472,02
456,41	2450,40
456,88	2475,35
457,34	2448,74
457,80	2456,06
458,27	2445,75
458,73	2458,39
459,20	2467,70
459,66	2480,00
460,13	2459,38
460,59	2441,42
461,05	2493,97
461,52	2471,02
461,98	2445,75
462,45	2433,44
462,91	2486,32
463,37	2450,74
463,84	2457,39
464,30	2460,71
464,76	2446,08
465,23	2461,38
465,69	2478,67
466,16	2474,02
466,62	2471,02
467,08	2473,68
467,55	2474,02
468,01	2469,36
468,48	2465,70
468,94	2440,76
469,40	2444,75
469,87	2451,07
470,33	2464,70
470,79	2460,71
471,26	2453,40
471,72	2455,39
472,18	2446,41
472,65	2464,04
473,11	2478,67
473,57	2462,71
474,04	2442,09
474,50	2455,72
474,96	2440,43
475,43	2475,68
475,89	2466,70
476,35	2456,06
476,82	2466,37
477,28	2471,02
477,74	2484,99
478,21	2463,04
478,67	2484,66
479,13	2443,75
479,59	2492,64
480,06	2467,70
480,52	2466,70
480,98	2458,39
481,45	2454,39
481,91	2475,01
482,37	2450,07
482,84	2474,68
483,30	2434,44
483,76	2447,41
484,22	2488,32
484,69	2469,36
485,15	2475,35
485,61	2442,75
486,07	2476,68
486,54	2449,41
487,00	2460,05
487,46	2436,10
487,92	2444,42
488,39	2459,72
488,85	2464,37
489,31	2459,38
489,77	2480,34
490,24	2444,75
490,70	2460,38
491,16	2433,44
491,62	2436,77
492,09	2431,78
492,55	2464,70
493,01	2460,38
493,47	2446,74
493,94	2452,07
494,40	2472,35
494,86	2447,74
495,32	2444,08
495,78	2471,02
496,25	2451,40
496,71	2459,05
497,17	2503,62
497,63	2482,33
498,09	2438,43
498,56	2469,03
499,02	2451,07
499,48	2510,27
499,94	2468,70
500,40	2450,07
500,87	2460,05
501,33	2439,76
501,79	2476,68
502,25	2467,70
502,71	2566,81
503,17	2454,39
503,64	2459,05
504,10	2451,73
504,56	2459,38
505,02	2450,40
505,48	2436,10
505,94	2445,75
506,40	2481,00
506,87	2443,42
507,33	2458,39
507,79	2465,37
508,25	2444,75
508,71	2445,08
509,17	2441,09
509,63	2462,38
510,10	2459,38
510,56	2449,07
511,02	2485,99
511,48	2493,31
511,94	2437,43
512,40	2432,11
512,86	2445,41
513,32	2471,69
513,78	2427,46
514,25	2475,35
514,71	2731,10
515,17	2428,12
515,63	2449,41
516,09	2479,67
516,55	2470,36
517,01	2514,59
517,47	2473,35
517,93	2460,71
518,39	2543,19
518,85	2464,37
519,32	2451,07
519,78	2434,44
520,24	2438,76
520,70	2467,70
521,16	2475,01
521,62	2466,37
522,08	2460,38
522,54	2435,10
523,00	2518,92
523,46	2474,68
523,92	2452,73
524,38	2503,95
524,84	2478,34
525,30	2475,35
525,76	2484,66
526,22	2468,03
526,68	2473,35
527,14	2450,74
527,60	2446,08
528,06	2477,34
528,52	2473,02
528,98	2451,73
529,44	2445,41
529,90	2468,70
530,36	2481,00
530,82	2433,77
531,28	2473,35
531,74	2452,73
532,20	2460,05
532,66	2451,07
533,12	2464,37
533,58	2447,41
534,04	2452,73
534,50	2452,07
534,96	2455,06
535,42	2462,38
535,88	2455,06
536,34	2470,03
536,80	2446,08
537,26	2469,69
537,72	2464,70
538,18	2460,38
538,64	2496,63
539,10	2476,01
539,56	2563,81
540,02	2431,45
540,48	2490,31
540,94	2471,02
541,40	2443,09
541,86	2472,02
542,32	2459,72
542,78	2449,41
543,24	2511,60
543,69	2423,80
544,15	2510,60
544,61	2465,04
545,07	2446,41
545,53	2441,76
545,99	2486,99
546,45	2457,72
546,91	2466,37
547,37	2473,02
547,83	2465,70
548,29	2463,71
548,74	2453,06
549,20	2444,75
549,66	2508,61
550,12	2450,74
550,58	2436,43
551,04	2468,36
551,50	2480,34
551,96	2516,92
552,42	2479,01
552,87	2460,05
553,33	2461,71
553,79	2452,40
554,25	2444,75
554,71	2466,37
555,17	2453,73
555,63	2481,33
556,08	2460,05
556,54	2488,98
557,00	2436,43
557,46	2462,04
557,92	2498,96
558,38	2450,07
558,83	2457,39
559,29	2440,43
559,75	2459,05
560,21	2444,75
560,67	2466,70
561,13	2461,38
561,58	2468,70
562,04	2456,39
562,50	2445,75
562,96	2458,05
563,42	2484,66
563,87	2441,42
564,33	2466,03
564,79	2452,73
565,25	2462,38
565,71	2460,05
566,16	2482,33
566,62	2447,74
567,08	2454,39
567,54	2457,72
568,00	2485,99
568,45	2446,41
568,91	2467,37
569,37	2472,02
569,83	2461,38
570,28	2457,39
570,74	2470,36
571,20	2469,36
571,66	2453,40
572,11	2465,37
572,57	2472,02
573,03	2453,40
573,49	2442,75
573,94	2467,70
574,40	2495,63
574,86	2475,35
575,32	2450,40
575,77	2468,03
576,23	2435,10
576,69	2483,99
577,15	2449,74
577,60	2447,41
578,06	2447,08
578,52	2487,99
578,97	2466,37
579,43	2466,37
579,89	2472,35
580,34	2458,39
580,80	2460,38
581,26	2462,04
581,72	2452,73
582,17	2450,74
582,63	2424,13
583,09	2461,05
583,54	2462,04
584,00	2456,72
584,46	2470,36
584,91	2453,06
585,37	2516,59
585,83	2449,74
586,28	2457,05
586,74	2464,04
587,20	2451,07
587,65	2462,04
588,11	2433,77
588,57	2470,03
589,02	2459,72
589,48	2461,05
589,94	2469,03
590,39	2470,03
590,85	2443,75
591,30	2446,74
591,76	2502,29
592,22	2442,42
592,67	2464,37
593,13	2456,72
593,59	2463,37
594,04	2442,09
594,50	2455,72
594,95	2478,67
595,41	2462,04
595,87	2441,09
596,32	2485,99
596,78	2472,02
597,23	2469,36
597,69	2466,03
598,15	2444,42
598,60	2452,73
599,06	2486,99
599,51	2451,40
599,97	2469,36
600,43	2485,99
600,88	2478,01
601,34	2494,30
601,79	2457,39
602,25	2517,25
602,70	2438,76
603,16	2459,05
603,61	2442,75
604,07	2448,41
604,53	2474,02
604,98	2443,42
605,44	2465,70
605,89	2457,05
606,35	2438,10
606,80	2465,37
607,26	2450,07
607,71	2454,39
608,17	2464,04
608,62	2459,05
609,08	2511,93
609,53	2484,99
609,99	2460,38
610,44	2441,09
610,90	2454,39
611,35	2442,75
611,81	2502,62
612,26	2480,34
612,72	2457,05
613,17	2538,54
613,63	2432,11
614,08	2441,09
614,54	2442,42
614,99	2439,43
615,45	2457,72
615,90	2456,39
616,36	2434,44
616,81	2445,75
617,27	2451,40
617,72	2474,35
618,18	2457,72
618,63	2444,75
619,09	2450,07
619,54	2463,71
619,99	2452,40
620,45	2470,03
620,90	2480,67
621,36	2454,39
621,81	2472,69
622,27	2487,32
622,72	2460,71
623,18	2465,04
623,63	2458,39
624,08	2490,31
624,54	2447,74
624,99	2450,74
625,45	2467,70
625,90	2452,40
626,35	2465,04
626,81	2467,70
627,26	2447,41
627,72	2461,05
628,17	2462,71
628,62	2420,47
629,08	2460,05
629,53	2467,03
629,99	2443,09
630,44	2456,39
630,89	2458,39
631,35	2470,03
631,80	2461,71
632,26	2484,33
632,71	2449,41
633,16	2445,08
633,62	2445,75
634,07	2447,74
634,52	2425,46
634,98	2458,72
635,43	2454,06
635,88	2431,11
636,34	2465,37
636,79	2469,03
637,24	2441,42
637,70	2472,35
638,15	2473,68
638,60	2450,74
639,06	2453,40
639,51	2451,40
639,96	2448,08
640,42	2473,35
640,87	2483,66
641,32	2441,76
641,78	2436,10
642,23	2447,41
642,68	2427,46
643,14	2447,41
643,59	2472,02
644,04	2452,73
644,49	2442,42
644,95	2447,74
645,40	2438,10
645,85	2449,07
646,31	2473,35
646,76	2468,03
647,21	2469,03
647,66	2450,40
648,12	2474,68
648,57	2432,78
649,02	2483,33
649,47	2468,36
649,93	2541,20
650,38	2437,10
650,83	2442,09
651,28	2459,05
651,74	2458,39
652,19	2451,40
652,64	2445,75
653,09	2442,09
653,55	2449,41
654,00	2459,72
654,45	2469,69
654,90	2448,74
655,35	2447,74
655,81	2458,05
656,26	2438,10
656,71	2451,07
657,16	2467,37
657,62	2477,68
658,07	2451,07
658,52	2456,72
658,97	2436,10
659,42	2555,83
659,88	2447,08
660,33	2474,35
660,78	2452,40
661,23	2447,08
661,68	2458,05
662,13	2444,08
662,59	2430,12
663,04	2461,38
663,49	2457,72
663,94	2440,43
664,39	2451,07
664,84	2442,42
665,30	2457,72
665,75	2441,42
666,20	2461,71
666,65	2458,05
667,10	2510,93
667,55	2479,34
668,00	2432,11
668,46	2461,38
668,91	2453,06
669,36	2504,95
669,81	2436,43
670,26	2439,76
670,71	2478,67
671,16	2443,09
671,61	2497,96
672,06	2509,60
672,52	2457,05
672,97	2464,04
673,42	2482,33
673,87	2531,22
674,32	2445,41
674,77	2468,70
675,22	2429,12
675,67	2432,11
676,12	2457,72
676,57	2448,74
677,02	2451,07
677,47	2448,74
677,93	2503,95
678,38	2442,09
678,83	2445,08
679,28	2459,05
679,73	2438,43
680,18	2461,05
680,63	2455,72
681,08	2416,15
681,53	2413,82
681,98	2445,41
682,43	2466,03
682,88	2462,04
683,33	2469,69
683,78	2448,08
684,23	2471,69
684,68	2463,37
685,13	2472,69
685,58	2450,74
686,03	2454,39
686,48	2444,08
686,93	2449,07
687,38	2447,41
687,83	2459,72
688,28	2449,41
688,73	2521,91
689,18	2474,68
689,63	2433,77
690,08	2446,08
690,53	2434,77
690,98	2433,11
691,43	2450,74
691,88	2437,77
692,33	2462,04
692,78	2451,73
693,23	2467,03
693,68	2471,36
694,13	2454,39
694,58	2460,38
695,03	2555,83
695,48	2465,37
695,93	2449,07
696,38	2505,61
696,83	2450,07
697,28	2458,39
697,72	2464,37
698,17	2449,74
698,62	2476,34
699,07	2480,67
699,52	2441,09
699,97	2442,09
700,42	2476,34
700,87	2475,35
701,32	2528,89
701,77	2440,43
702,22	2489,98
702,67	2453,40
703,11	2453,06
703,56	2460,05
704,01	2443,09
704,46	2444,08
704,91	2489,98
705,36	2479,67
705,81	2481,00
706,26	2443,75
706,70	2467,37
707,15	2456,39
707,60	2451,07
708,05	2456,72
708,50	2474,68
708,95	2460,38
709,40	2456,06
709,84	2460,71
710,29	2464,70
710,74	2448,41
711,19	2457,05
711,64	2464,37
712,09	2455,72
712,53	2433,77
712,98	2502,95
713,43	2458,05
713,88	2466,03
714,33	2487,99
714,78	2473,02
715,22	2442,09
715,67	2455,06
716,12	2438,43
716,57	2442,42
717,02	2433,11
717,46	2442,42
717,91	2457,39
718,36	2485,66
718,81	2435,77
719,26	2437,77
719,70	2474,68
720,15	2449,07
720,60	2442,09
721,05	2461,38
721,49	2454,39
721,94	2454,73
722,39	2457,05
722,84	2435,77
723,28	2420,80
723,73	2462,04
724,18	2421,47
724,63	2457,72
725,07	2432,44
725,52	2449,74
725,97	2449,07
726,42	2437,77
726,86	2492,97
727,31	2437,77
727,76	2482,33
728,21	2477,34
728,65	2446,08
729,10	2480,67
729,55	2443,75
729,99	2475,68
730,44	2432,44
730,89	2463,04
731,33	2454,73
731,78	2470,36
732,23	2465,70
732,68	2450,07
733,12	2471,36
733,57	2460,05
734,02	2428,12
734,46	2475,01
734,91	2460,71
735,36	2452,07
735,80	2517,58
736,25	2446,74
736,70	2468,70
737,14	2475,01
737,59	2462,71
738,04	2436,77
738,48	2449,07
738,93	2447,41
739,37	2427,12
739,82	2476,68
740,27	2464,37
740,71	2434,44
741,16	2469,03
741,61	2470,69
742,05	2449,74
742,50	2459,05
742,94	2437,77
743,39	2446,74
743,84	2455,06
744,28	2484,66
744,73	2459,38
745,18	2458,05
745,62	2474,68
746,07	2475,35
746,51	2419,14
746,96	2438,76
747,40	2425,79
747,85	2461,71
748,30	2455,39
748,74	2428,12
749,19	2474,68
749,63	2506,61
750,08	2455,72
750,52	2446,08
750,97	2442,75
751,42	2444,75
751,86	2445,41
752,31	2448,74
752,75	2492,31
753,20	2440,76
753,64	2454,73
754,09	2421,47
754,53	2444,08
754,98	2441,42
755,42	2458,39
755,87	2446,74
756,31	2475,68
756,76	2449,74
757,20	2480,34
757,65	2460,71
758,09	2450,07
758,54	2442,09
758,98	2455,06
759,43	2457,05
759,87	2440,09
760,32	2474,02
760,76	2458,72
761,21	2469,69
761,65	2485,66
762,10	2459,38
762,54	2434,77
762,99	2448,41
763,43	2475,01
763,88	2454,39
764,32	2443,09
764,77	2463,04
765,21	2460,05
765,66	2440,43
766,10	2437,43
766,54	2456,06
766,99	2456,39
767,43	2460,71
767,88	2451,73
768,32	2467,70
768,77	2459,72
769,21	2488,32
769,66	2437,77
770,10	2449,41
770,54	2456,72
770,99	2425,13
771,43	2463,37
771,88	2451,40
772,32	2445,41
772,76	2427,79
773,21	2459,38
773,65	2452,40
774,10	2429,12
774,54	2467,03
774,98	2446,74
775,43	2460,71
775,87	2465,70
776,31	2438,43
776,76	2451,40
777,20	2444,75
777,65	2459,38
778,09	2471,69
778,53	2436,10
778,98	2451,40
779,42	2500,96
779,86	2474,02
780,31	2445,08
780,75	2483,33
781,19	2467,70
781,64	2453,73
782,08	2460,05
782,52	2442,42
782,97	2451,73
783,41	2476,01
783,85	2475,35
784,30	2454,39
784,74	2463,04
785,18	2452,73
785,63	2436,43
786,07	2467,03
786,51	2477,34
786,95	2494,30
787,40	2440,43
787,84	2443,09
788,28	2451,07
788,73	2490,98
789,17	2445,75
789,61	2449,41
790,05	2450,40
790,50	2437,43
790,94	2424,13
791,38	2476,01
791,82	2455,39
792,27	2460,38
792,71	2456,06
793,15	2545,19
793,59	2477,01
794,04	2456,06
794,48	2453,40
794,92	2457,39
795,36	2431,11
795,81	2457,05
796,25	2448,41
796,69	2445,08
797,13	2441,42
797,57	2438,76
798,02	2451,07
798,46	2481,33
798,90	2458,39
799,34	2431,45
799,79	2492,97
800,23	2460,05
800,67	2449,07
801,11	2469,36
801,55	2464,70
801,99	2448,74
802,44	2470,69
802,88	2502,62
803,32	2469,03
803,76	2456,39
804,20	2457,72
804,64	2442,75
805,09	2485,32
805,53	2507,94
805,97	2504,95
806,41	2466,03
806,85	2500,96
807,29	2438,10
807,74	2440,09
808,18	2432,78
808,62	2458,39
809,06	2458,39
809,50	2447,08
809,94	2447,08
810,38	2461,71
810,82	2489,32
811,27	2530,56
811,71	2449,74
812,15	2439,76
812,59	2485,66
813,03	2504,28
813,47	2478,01
813,91	2472,69
814,35	2475,68
814,79	2459,72
815,23	2460,38
815,67	2454,06
816,12	2444,75
816,56	2443,42
817,00	2478,67
817,44	2448,74
817,88	2485,66
818,32	2444,75
818,76	2458,39
819,20	2475,35
819,64	2445,75
820,08	2463,71
820,52	2451,73
820,96	2475,01
821,40	2441,76
821,84	2484,33
822,28	2445,08
822,72	2459,72
823,16	2463,37
823,60	2446,74
824,04	2464,37
824,48	2455,72
824,92	2473,35
825,36	2468,70
825,80	2450,74
826,24	2462,38
826,68	2444,08
827,12	2454,39
827,56	2476,68
828,00	2466,70
828,44	2447,41
828,88	2466,03
829,32	2466,37
829,76	2437,10
830,20	2483,99
830,64	2454,73
831,08	2507,94
831,52	2469,69
831,96	2471,69
832,40	2437,77
832,84	2451,73
833,28	2452,40
833,72	2482,00
834,16	2476,01
834,60	2462,71
835,04	2446,41
835,48	2466,37
835,91	2444,08
836,35	2459,38
836,79	2451,07
837,23	2483,66
837,67	2444,42
838,11	2435,10
838,55	2462,38
838,99	2453,06
839,43	2494,64
839,87	2514,92
840,30	2465,04
840,74	2486,32
841,18	2419,47
841,62	2445,08
842,06	2441,09
842,50	2450,40
842,94	2468,36
843,38	2456,06
843,81	2471,69
844,25	2456,06
844,69	2431,11
845,13	2472,69
845,57	2452,40
846,01	2471,02
846,45	2455,72
846,88	2444,08
847,32	2453,40
847,76	2440,09
848,20	2451,07
848,64	2449,07
849,08	2478,01
849,51	2475,35
849,95	2483,00
850,39	2448,41
850,83	2484,99
851,27	2446,08
851,70	2457,39
852,14	2495,30
852,58	2449,07
853,02	2453,40
853,46	2477,34
853,89	2417,48
854,33	2476,34
854,77	2430,78
855,21	2420,80
855,65	2466,37
856,08	2495,30
856,52	2453,40
856,96	2468,03
857,40	2474,02
857,83	2443,42
858,27	2482,33
858,71	2423,13
859,15	2447,41
859,58	2446,08
860,02	2457,39
860,46	2465,04
860,89	2472,02
861,33	2446,74
861,77	2451,40
862,21	2459,38
862,64	2447,08
863,08	2448,41
863,52	2475,68
863,95	2442,42
864,39	2457,05
864,83	2443,75
865,27	2427,79
865,70	2462,71
866,14	2433,77
866,58	2472,35
867,01	2446,08
867,45	2467,03
867,89	2463,37
868,32	2450,40
868,76	2474,02
869,20	2453,06
869,63	2493,64
870,07	2493,97
870,51	2439,43
870,94	2460,05
871,38	2460,38
871,82	2440,43
872,25	2466,70
872,69	2460,71
873,13	2450,07
873,56	2483,33
874,00	2464,37
874,43	2450,07
874,87	2444,75
875,31	2484,66
875,74	2428,79
876,18	2466,37
876,61	2462,38
877,05	2454,73
877,49	2462,71
877,92	2455,06
878,36	2455,06
878,79	2454,39
879,23	2488,98
879,67	2456,72
880,10	2442,42
880,54	2459,38
880,97	2457,72
881,41	2476,68
881,84	2440,76
882,28	2466,37
882,72	2453,06
883,15	2452,07
883,59	2443,42
884,02	2472,02
884,46	2459,72
884,89	2467,03
885,33	2470,69
885,76	2444,42
886,20	2435,44
886,63	2496,30
887,07	2439,10
887,50	2433,11
887,94	2449,07
888,37	2446,08
888,81	2536,21
889,24	2442,75
889,68	2477,34
890,11	2449,41
890,55	2469,36
890,98	2473,35
891,42	2427,79
891,85	2454,06
892,29	2447,41
892,72	2427,12
893,16	2445,08
893,59	2470,03
894,03	2453,40
894,46	2463,71
894,90	2443,42
895,33	2437,77
895,77	2457,39
896,20	2477,01
896,63	2439,10
897,07	2443,75
897,50	2433,44
897,94	2458,72
898,37	2478,67
898,81	2433,77
899,24	2440,43
899,68	2445,08
900,11	2482,66
900,54	2464,37
900,98	2443,42
901,41	2500,29
901,85	2508,27
902,28	2440,76
902,71	2441,42
903,15	2467,37
903,58	2461,71
904,02	2443,75
904,45	2449,74
904,88	2461,71
905,32	2432,44
905,75	2482,00
906,18	2456,72
906,62	2471,69
907,05	2463,04
907,48	2449,07
907,92	2470,03
908,35	2484,99
908,79	2452,73
909,22	2432,11
909,65	2473,02
910,09	2450,40
910,52	2446,08
910,95	2436,10
911,38	2453,40
911,82	2456,06
912,25	2452,40
912,68	2467,03
913,12	2454,73
913,55	2453,40
913,98	2425,13
914,42	2439,76
914,85	2455,72
915,28	2437,43
915,72	2478,34
916,15	2446,74
916,58	2468,70
917,01	2448,08
917,45	2465,37
917,88	2435,44
918,31	2466,03
918,74	2452,73
919,18	2467,70
919,61	2467,70
920,04	2446,08
920,47	2485,32
920,91	2464,70
921,34	2458,72
921,77	2433,11
922,20	2438,43
922,64	2460,38
923,07	2476,68
923,50	2484,33
923,93	2444,42
924,37	2465,37
924,80	2438,10
925,23	2477,01
925,66	2497,63
926,09	2444,75
926,53	2474,68
926,96	2435,10
927,39	2493,31
927,82	2447,74
928,25	2433,44
928,69	2466,37
929,12	2454,39
929,55	2456,39
929,98	2473,35
930,41	2435,44
930,84	2452,07
931,28	2419,81
931,71	2499,63
932,14	2486,65
932,57	2518,25
933,00	2450,74
933,43	2474,02
933,86	2476,34
934,30	2469,69
934,73	2476,01
935,16	2436,10
935,59	2452,40
936,02	2451,73
936,45	2459,72
936,88	2449,41
937,31	2481,33
937,75	2437,10
938,18	2443,75
938,61	2470,03
939,04	2432,11
939,47	2444,75
939,90	2474,35
940,33	2494,30
940,76	2442,75
941,19	2480,00
941,62	2449,74
942,05	2446,08
942,48	2471,36
942,91	2439,76
943,35	2441,09
943,78	2481,67
944,21	2464,37
944,64	2468,70
945,07	2452,07
945,50	2453,40
945,93	2454,39
946,36	2477,34
946,79	2443,09
947,22	2447,08
947,65	2467,03
948,08	2439,43
948,51	2450,74
948,94	2439,43
949,37	2502,29
949,80	2481,33
950,23	2459,72
950,66	2443,75
951,09	2462,38
951,52	2430,45
951,95	2478,01
952,38	2450,74
952,81	2474,35
953,24	2428,79
953,67	2449,07
954,10	2449,07
954,53	2452,73
954,96	2457,72
955,39	2468,70
955,82	2430,45
956,25	2458,72
956,68	2522,24
957,11	2439,76
957,53	2462,38
957,96	2457,39
958,39	2442,09
958,82	2442,09
959,25	2454,39
959,68	2435,10
960,11	2443,09
960,54	2455,06
960,97	2468,36
961,40	2469,36
961,83	2483,33
962,26	2441,09
962,68	2460,38
963,11	2452,40
963,54	2456,72
963,97	2457,72
964,40	2440,76
964,83	2467,70
965,26	2441,42
965,69	2446,74
966,11	2466,03
966,54	2441,42
966,97	2429,45
967,40	2480,00
967,83	2552,84
968,26	2487,32
968,69	2470,69
969,11	2464,70
969,54	2434,11
969,97	2442,75
970,40	2483,00
970,83	2447,08
971,26	2464,04
971,68	2421,80
972,11	2440,43
972,54	2446,08
972,97	2467,37
973,40	2457,39
973,82	2469,03
974,25	2466,03
974,68	2437,10
975,11	2447,41
975,54	2447,74
975,96	2463,37
976,39	2429,45
976,82	2469,36
977,25	2450,74
977,67	2456,06
978,10	2468,70
978,53	2455,06
978,96	2482,33
979,38	2451,07
979,81	2445,41
980,24	2460,71
980,67	2472,02
981,09	2464,70
981,52	2469,69
981,95	2450,07
982,38	2454,39
982,80	2442,09
983,23	2459,38
983,66	2459,05
984,08	2433,11
984,51	2432,11
984,94	2451,07
985,37	2466,70
985,79	2437,77
986,22	2445,08
986,65	2459,72
987,07	2452,73
987,50	2455,39
987,93	2453,06
988,35	2462,38
988,78	2455,39
989,21	2440,09
989,63	2470,36
990,06	2449,07
990,49	2470,69
990,91	2490,98
991,34	2446,08
991,77	2448,41
992,19	2455,06
992,62	2441,76
993,05	2454,73
993,47	2483,00
993,90	2470,36
994,32	2456,72
994,75	2448,74
995,18	2436,10
995,60	2442,09
996,03	2418,48
996,45	2472,69
996,88	2467,70
997,31	2447,08
997,73	2455,39
998,16	2451,07
998,58	2480,67
999,01	2461,38
999,44	2460,05
999,86	2469,03
1000,29	2446,74
1000,71	2459,38
1001,14	2470,36
1001,56	2458,39
1001,99	2459,72
1002,41	2451,73
1002,84	2459,38
1003,27	2439,10
1003,69	2466,37
1004,12	2463,04
1004,54	2487,99
1004,97	2450,74
1005,39	2436,43
1005,82	2463,71
1006,24	2455,72
1006,67	2453,40
1007,09	2436,43
1007,52	2446,41
1007,94	2432,44
1008,37	2527,90
1008,79	2474,02
1009,22	2487,99
1009,64	2461,05
1010,07	2472,35
1010,49	2473,02
1010,92	2470,03
1011,34	2488,65
1011,77	2460,38
1012,19	2451,40
1012,62	2468,70
1013,04	2440,43
1013,46	2492,64
1013,89	2442,75
1014,31	2474,68
1014,74	2437,43
1015,16	2465,70
1015,59	2430,12
1016,01	2469,36
1016,44	2449,07
1016,86	2824,90
1017,28	2437,10
1017,71	2441,76
1018,13	2530,56
1018,56	2478,67
1018,98	2464,04
1019,40	2447,74
1019,83	2445,41
1020,25	2466,03
1020,68	2456,72
1021,10	2464,04
1021,52	2446,41
1021,95	2526,23
1022,37	2484,99
1022,79	2481,33
1023,22	2475,01
1023,64	2469,69
1024,07	2469,36
1024,49	2476,68
1024,91	2451,73
1025,34	2449,41
1025,76	2498,63
1026,18	2467,70
1026,61	2468,70
1027,03	2458,72
1027,45	2459,38
1027,88	2446,08
1028,30	2510,27
1028,72	2458,39
1029,15	2465,04
1029,57	2474,68
1029,99	2490,98
1030,41	2431,78
1030,84	2465,70
1031,26	2468,70
1031,68	2447,74
1032,11	2480,67
1032,53	2431,45
1032,95	2439,76
1033,37	2463,04
1033,80	2477,68
1034,22	2445,75
1034,64	2497,30
1035,06	2425,46
1035,49	2441,76
1035,91	2459,72
1036,33	2437,10
1036,75	2480,00
1037,18	2475,35
1037,60	2475,68
1038,02	2481,33
1038,44	2488,65
1038,87	2457,39
1039,29	2458,05
1039,71	2463,71
1040,13	2450,74
1040,55	2485,32
1040,98	2485,32
1041,40	2482,33
1041,82	2475,68
1042,24	2457,05
1042,66	2472,02
1043,09	2445,41
1043,51	2443,09
1043,93	2445,75
1044,35	2446,41
1044,77	2467,70
1045,20	2467,37
1045,62	2438,10
1046,04	2467,03
1046,46	2476,68
1046,88	2439,10
1047,30	2486,99
1047,72	2484,99
1048,15	2484,33
1048,57	2449,41
1048,99	2453,40
1049,41	2468,03
1049,83	2476,68
1050,25	2500,96
1050,67	2488,98
1051,09	2455,72
1051,52	2472,02
1051,94	2420,80
1052,36	2469,69
1052,78	2425,13
1053,20	2451,40
1053,62	2442,09
1054,04	2452,40
1054,46	2452,40
1054,88	2498,96
1055,30	2481,67
1055,72	2478,67
1056,14	2472,02
1056,57	2546,19
1056,99	2449,74
1057,41	2465,37
1057,83	2472,69
1058,25	2465,37
1058,67	2457,05
1059,09	2450,40
1059,51	2471,02
1059,93	2463,71
1060,35	2452,40
1060,77	2478,34
1061,19	2491,64
1061,61	2457,72
1062,03	2465,37
1062,45	2442,75
1062,87	2490,31
1063,29	2481,00
1063,71	2455,72
1064,13	2465,04
1064,55	2446,08
1064,97	2481,33
1065,39	2464,70
1065,81	2446,08
1066,23	2455,39
1066,65	2455,39
1067,07	2485,66
1067,49	2468,03
1067,91	2450,40
1068,33	2436,10
1068,75	2471,69
1069,17	2484,66
1069,59	2487,32
1070,00	2454,39
1070,42	2470,03
1070,84	2453,73
1071,26	2437,43
1071,68	2434,44
1072,10	2467,37
1072,52	2466,70
1072,94	2430,78
1073,36	2444,08
1073,78	2456,72
1074,20	2479,01
1074,62	2445,75
1075,03	2444,08
1075,45	2449,74
1075,87	2468,70
1076,29	2429,78
1076,71	2477,68
1077,13	2494,30
1077,55	2407,17
1077,97	2459,72
1078,38	2448,74
1078,80	2456,39
1079,22	2468,70
1079,64	2468,70
1080,06	2452,73
1080,48	2480,67
1080,89	2457,39
1081,31	2458,39
1081,73	2454,73
1082,15	2452,40
1082,57	2490,31
1082,99	2453,40
1083,40	2465,04
1083,82	2496,63
1084,24	2458,05
1084,66	2435,44
1085,08	2463,71
1085,49	2440,09
1085,91	2473,02
1086,33	3144,52
1086,75	2454,39
1087,17	2448,74
1087,58	2456,39
1088,00	2451,73
1088,42	2481,67
1088,84	2450,40
1089,25	2449,74
1089,67	2462,04
1090,09	2455,39
1090,51	2432,78
1090,92	2452,40
1091,34	2444,08
1091,76	2458,05
1092,18	2455,06
1092,59	2459,38
1093,01	2455,39
1093,43	2459,72
1093,84	2447,41
1094,26	2453,06
1094,68	2465,37
1095,10	2451,73
1095,51	2457,72
1095,93	2449,41
1096,35	2484,99
1096,76	2468,70
1097,18	2474,35
1097,60	2455,39
1098,01	2448,74
1098,43	2452,40
1098,85	2452,40
1099,26	2439,10
1099,68	2450,74
1100,10	2434,44
1100,51	2448,08
1100,93	2453,40
1101,35	2467,37
1101,76	2470,03
1102,18	2593,08
1102,60	2481,00
1103,01	2424,46
1103,43	2444,08
1103,84	2453,40
1104,26	2452,73
1104,68	2468,36
1105,09	2415,81
1105,51	2429,45
1105,92	2466,70
1106,34	2428,12
1106,76	2452,40
1107,17	2461,71
1107,59	2456,39
1108,00	2417,81
1108,42	2452,40
1108,83	2433,44
1109,25	2434,11
1109,67	2437,43
1110,08	2432,78
1110,50	2405,50
1110,91	2429,45
1111,33	2429,78
1111,74	2421,80
1112,16	2447,41
1112,57	2470,03
1112,99	2429,78
1113,41	2444,08
1113,82	2441,76
1114,24	2452,07
1114,65	2448,41
1115,07	2430,45
1115,48	2420,80
1115,90	2172,03
1116,31	2182,68
1116,73	2184,34
1117,14	2184,67
>>>>>End Processed Spectral Data<<<<<
