SpectraSuite Data File
++++++++++++++++++++++++++++++++++++
Date: Wed Jul 27 14:27:28 EEST 2016
User: OO Maya
Dark Spectrum Present: No
Reference Spectrum Present: No
Number of Sampled Component Spectra: 1
Spectrometers: MAYP11278
Integration Time (usec): 220000 (MAYP11278)
Spectra Averaged: 3 (MAYP11278)
Boxcar Smoothing: 0 (MAYP11278)
Correct for Electrical Dark: No (MAYP11278)
Strobe/Lamp Enabled: No (MAYP11278)
Correct for Detector Non-linearity: Yes (MAYP11278)
Correct for Stray Light: No (MAYP11278)
Number of Pixels in Processed Spectrum: 2068
>>>>>Begin Processed Spectral Data<<<<<
187,82	2290,43
188,30	2214,60
188,78	2183,34
189,26	2178,35
189,73	2432,44
190,21	2454,73
190,69	2467,03
191,17	2466,03
191,64	2493,64
192,12	2473,35
192,60	2455,39
193,07	2455,39
193,55	2473,02
194,03	2467,03
194,51	2479,67
194,98	2464,04
195,46	2491,98
195,94	2469,03
196,42	2478,67
196,89	2515,59
197,37	2469,36
197,85	2465,37
198,32	2464,04
198,80	2455,39
199,28	2486,32
199,76	2478,67
200,23	2460,71
200,71	2466,03
201,19	2490,65
201,66	2483,66
202,14	2483,00
202,62	2470,69
203,09	2486,99
203,57	2455,06
204,05	2489,65
204,53	2495,97
205,00	2460,71
205,48	2464,70
205,96	2493,64
206,43	2464,70
206,91	2489,65
207,39	2512,93
207,86	2462,38
208,34	2477,34
208,82	2466,70
209,29	2487,65
209,77	2491,98
210,25	2485,66
210,72	2477,34
211,20	2473,35
211,68	2475,01
212,15	2464,70
212,63	2509,60
213,11	2483,99
213,58	2462,71
214,06	2496,63
214,53	2501,29
215,01	2504,28
215,49	2490,65
215,96	2497,63
216,44	2482,66
216,92	2488,65
217,39	2472,69
217,87	2478,01
218,35	2491,98
218,82	2450,07
219,30	2464,37
219,77	2463,04
220,25	2475,68
220,73	2530,22
221,20	2465,37
221,68	2489,98
222,15	2470,36
222,63	2476,34
223,11	2469,36
223,58	2480,34
224,06	2477,34
224,53	2465,37
225,01	2473,35
225,49	2476,34
225,96	2462,04
226,44	2480,00
226,91	2479,34
227,39	2471,36
227,87	2495,30
228,34	2497,63
228,82	2494,97
229,29	2473,68
229,77	2481,00
230,24	2470,69
230,72	2483,66
231,20	2522,24
231,67	2478,67
232,15	2463,71
232,62	2458,39
233,10	2485,99
233,57	2480,34
234,05	2556,83
234,53	2493,97
235,00	2466,70
235,48	2475,01
235,95	2472,69
236,43	2495,97
236,90	2508,61
237,38	2472,02
237,85	2476,34
238,33	2483,00
238,80	2484,99
239,28	2477,68
239,75	2462,38
240,23	2497,30
240,71	2503,62
241,18	2483,00
241,66	2475,35
242,13	2498,63
242,61	2514,92
243,08	2465,70
243,56	2482,66
244,03	2500,29
244,51	2511,27
244,98	2488,65
245,46	2509,60
245,93	3407,29
246,41	2452,40
246,88	2495,63
247,36	2499,63
247,83	2489,32
248,31	2499,29
248,78	2470,36
249,26	2493,31
249,73	2507,61
250,21	2495,63
250,68	2505,94
251,16	2473,35
251,63	2513,93
252,10	2502,95
252,58	2471,02
253,05	2501,29
253,53	2483,66
254,00	2477,68
254,48	2484,99
254,95	2483,66
255,43	2496,96
255,90	2479,01
256,38	2471,36
256,85	2498,30
257,33	2509,60
257,80	2543,86
258,27	2507,61
258,75	2482,66
259,22	2484,99
259,70	2499,29
260,17	2531,89
260,65	2484,99
261,12	2483,00
261,59	2519,58
262,07	2485,99
262,54	2504,28
263,02	2481,00
263,49	2463,04
263,97	2511,27
264,44	2500,62
264,91	2485,99
265,39	2501,95
265,86	2501,29
266,34	2513,59
266,81	2478,34
267,28	2478,01
267,76	2491,64
268,23	2487,65
268,71	2472,02
269,18	2468,70
269,65	2480,34
270,13	2501,95
270,60	2526,23
271,08	2482,33
271,55	2485,66
272,02	2465,04
272,50	2471,02
272,97	2459,38
273,44	2503,62
273,92	2540,87
274,39	2505,94
274,87	2507,94
275,34	2483,99
275,81	2493,64
276,29	2510,93
276,76	2504,61
277,23	2479,67
277,71	2488,65
278,18	2486,99
278,65	2584,77
279,13	2487,65
279,60	2478,34
280,07	2573,46
280,55	2515,26
281,02	2552,84
281,50	2478,01
281,97	2525,23
282,44	2481,00
282,91	2495,30
283,39	2508,61
283,86	2487,99
284,33	2478,34
284,81	2503,28
285,28	2486,99
285,75	2498,30
286,23	2501,62
286,70	2481,67
287,17	2498,30
287,65	2526,23
288,12	2501,29
288,59	2508,27
289,07	2473,68
289,54	2524,57
290,01	2490,65
290,48	2510,60
290,96	2491,98
291,43	2504,61
291,90	2517,92
292,38	2479,67
292,85	2501,62
293,32	2489,98
293,79	2506,94
294,27	2511,27
294,74	2492,64
295,21	2523,24
295,69	2515,26
296,16	2537,87
296,63	2529,56
297,10	2519,58
297,58	2508,61
298,05	2511,93
298,52	2478,34
298,99	2534,55
299,47	2498,96
299,94	2505,61
300,41	2494,64
300,88	2515,59
301,36	2518,58
301,83	2510,27
302,30	2469,36
302,77	2513,59
303,25	2507,94
303,72	2489,32
304,19	2488,65
304,66	2483,33
305,13	2501,62
305,61	2506,61
306,08	2507,94
306,55	2514,26
307,02	2489,98
307,49	2494,64
307,97	2499,96
308,44	2484,99
308,91	2505,94
309,38	2521,58
309,86	2497,30
310,33	2504,95
310,80	2490,98
311,27	2473,35
311,74	2515,59
312,21	2504,28
312,69	2542,86
313,16	2491,64
313,63	2502,62
314,10	2500,62
314,57	2499,29
315,05	2499,96
315,52	2516,59
315,99	2525,90
316,46	2528,56
316,93	2558,83
317,40	2539,54
317,88	2609,05
318,35	2556,83
318,82	2582,77
319,29	2557,49
319,76	2600,40
320,23	2636,65
320,70	2627,34
321,18	2612,37
321,65	2580,44
322,12	2621,68
322,59	2646,96
323,06	2633,32
323,53	2677,56
324,00	2615,03
324,48	2630,00
324,95	2635,32
325,42	2617,69
325,89	2628,34
326,36	2623,01
326,83	2648,96
327,30	2651,28
327,77	2656,27
328,24	2656,61
328,72	2635,65
329,19	2631,66
329,66	2628,34
330,13	2608,38
330,60	2646,96
331,07	2621,35
331,54	2641,31
332,01	2596,74
332,48	2657,94
332,95	2634,32
333,43	2640,64
333,90	2653,61
334,37	2638,65
334,84	2642,64
335,31	2686,54
335,78	2628,67
336,25	2639,98
336,72	2611,37
337,19	2634,65
337,66	2598,74
338,13	2600,40
338,60	2633,66
339,07	2615,36
339,54	2590,42
340,01	2598,40
340,49	2596,07
340,96	2611,04
341,43	2616,36
341,90	2572,13
342,37	2611,71
342,84	2609,38
343,31	2610,04
343,78	2578,12
344,25	2585,10
344,72	2579,45
345,19	2586,10
345,66	2601,40
346,13	2574,79
346,60	2571,13
347,07	2602,06
347,54	2577,78
348,01	2594,08
348,48	2578,45
348,95	2537,87
349,42	2579,45
349,89	2586,76
350,36	2569,47
350,83	2562,15
351,30	2563,15
351,77	2606,72
352,24	2564,15
352,71	2558,83
353,18	2568,14
353,65	2580,78
354,12	2563,81
354,59	2568,47
355,06	2565,14
355,53	2579,45
356,00	2551,84
356,47	2576,78
356,94	2545,52
357,41	2615,70
357,88	2559,49
358,35	2540,20
358,82	2549,18
359,28	2535,88
359,75	2533,88
360,22	2569,80
360,69	2603,72
361,16	2546,19
361,63	2541,53
362,10	2561,82
362,57	2547,18
363,04	2575,12
363,51	2647,96
363,98	2658,60
364,45	2759,37
364,92	2856,49
365,39	2668,58
365,86	2583,10
366,32	2580,44
366,79	2546,52
367,26	3054,39
367,73	2499,29
368,20	2520,91
368,67	2555,50
369,14	2509,27
369,61	2560,49
370,08	2544,52
370,55	2529,23
371,02	2754,39
371,48	2536,87
371,95	2525,90
372,42	2497,96
372,89	2534,55
373,36	2535,54
373,83	2498,30
374,30	2509,60
374,77	2531,89
375,23	2504,95
375,70	2555,83
376,17	2506,28
376,64	2505,28
377,11	2506,28
377,58	2527,90
378,05	2525,57
378,51	2510,93
378,98	2533,22
379,45	2532,88
379,92	2537,21
380,39	2584,43
380,86	2519,58
381,33	2543,53
381,79	2555,83
382,26	2493,97
382,73	2532,88
383,20	2518,58
383,67	2534,21
384,14	2527,90
384,60	2641,64
385,07	2511,27
385,54	2527,56
386,01	2513,93
386,48	2560,16
386,94	2515,26
387,41	2505,28
387,88	2535,88
388,35	2526,90
388,82	2539,87
389,28	2496,96
389,75	2527,56
390,22	2519,91
390,69	2539,87
391,16	2518,25
391,62	2524,24
392,09	2538,87
392,56	2513,26
393,03	2532,88
393,50	2565,81
393,96	2529,89
394,43	2544,52
394,90	2518,92
395,37	2540,53
395,83	2614,37
396,30	2509,94
396,77	2554,83
397,24	2557,83
397,70	2526,56
398,17	2539,87
398,64	2534,88
399,11	2526,56
399,57	2571,46
400,04	2531,22
400,51	2563,15
400,98	2562,82
401,44	2600,73
401,91	2600,73
402,38	2644,96
402,84	2767,69
403,31	3023,46
403,78	3296,53
404,25	3882,65
404,71	3572,61
405,18	2873,45
405,65	2705,83
406,12	2744,41
406,58	2782,66
407,05	2836,87
407,52	2824,23
407,98	2807,60
408,45	2847,51
408,92	2832,54
409,38	2903,39
409,85	2921,02
410,32	2993,19
410,78	2972,90
411,25	3080,66
411,72	3111,93
412,18	3142,86
412,65	3262,93
413,12	3323,14
413,59	3419,27
414,05	3480,47
414,52	3617,18
414,98	3669,74
415,45	3855,37
415,92	3909,93
416,38	4023,70
416,85	4206,36
417,32	4309,50
417,78	4475,88
418,25	4647,59
418,72	4788,37
419,18	4956,13
419,65	5172,17
420,12	5353,96
420,58	5553,09
421,05	5800,89
421,51	6081,07
421,98	6289,34
422,45	6563,01
422,91	6845,44
423,38	7103,63
423,85	7442,35
424,31	7719,48
424,78	8072,58
425,24	8426,58
425,71	8774,46
426,18	9114,88
426,64	9472,98
427,11	9836,73
427,57	10250,82
428,04	10606,51
428,51	11100,45
428,97	11447,50
429,44	11902,10
429,90	12354,23
430,37	12954,05
430,83	13334,09
431,30	13841,38
431,77	14410,95
432,23	14979,82
432,70	15556,86
433,16	16152,38
433,63	17077,38
434,09	18382,53
434,56	21107,91
435,03	24448,05
435,49	27661,88
435,96	25522,11
436,42	22494,48
436,89	22728,47
437,35	23364,66
437,82	24349,76
438,28	25291,36
438,75	26392,91
439,21	27395,81
439,68	28259,78
440,14	29234,33
440,61	30048,98
441,07	30772,05
441,54	31532,50
442,00	32219,76
442,47	32579,79
442,94	33164,41
443,40	33404,16
443,87	33528,37
444,33	33426,65
444,80	32993,58
445,26	32626,82
445,73	32281,70
446,19	31607,51
446,65	30686,18
447,12	29909,74
447,58	28984,31
448,05	27966,90
448,51	26893,02
448,98	25799,66
449,44	24812,06
449,91	23707,76
450,37	22600,32
450,84	21665,59
451,30	20794,59
451,77	19869,43
452,23	19043,97
452,70	18344,35
453,16	17629,76
453,62	16978,73
454,09	16450,04
454,55	15942,03
455,02	15396,32
455,48	14971,31
455,95	14531,91
456,41	14101,94
456,88	13812,90
457,34	13355,43
457,80	13044,71
458,27	12669,38
458,73	12333,30
459,20	11977,64
459,66	11667,82
460,13	11310,80
460,59	10979,01
461,05	10687,84
461,52	10338,12
461,98	9981,99
462,45	9642,25
462,91	9388,88
463,37	9028,16
463,84	8782,16
464,30	8492,79
464,76	8205,26
465,23	7938,93
465,69	7689,76
466,16	7471,40
466,62	7239,76
467,08	7013,55
467,55	6841,77
468,01	6635,36
468,48	6473,00
468,94	6295,67
469,40	6128,05
469,87	5999,10
470,33	5911,82
470,79	5774,24
471,26	5648,00
471,72	5590,39
472,18	5452,52
472,65	5366,94
473,11	5349,63
473,57	5218,12
474,04	5150,87
474,50	5109,58
474,96	5016,71
475,43	4945,81
475,89	4910,86
476,35	4834,30
476,82	4779,39
477,28	4714,15
477,74	4721,48
478,21	4621,97
478,67	4601,34
479,13	4508,16
479,59	4534,78
480,06	4444,60
480,52	4405,00
480,98	4374,06
481,45	4345,77
481,91	4329,47
482,37	4303,85
482,84	4287,21
483,30	4264,59
483,76	4301,52
484,22	4305,84
484,69	4286,88
485,15	4254,27
485,61	4257,93
486,07	4312,83
486,54	4305,51
487,00	4347,10
487,46	4384,70
487,92	4431,62
488,39	4465,56
488,85	4506,83
489,31	4561,73
489,77	4619,64
490,24	4625,96
490,70	4761,41
491,16	4824,32
491,62	4933,49
492,09	5023,37
492,55	5120,90
493,01	5126,90
493,47	5268,06
493,94	5323,99
494,40	5419,22
494,86	5543,10
495,32	5670,32
495,78	5789,89
496,25	5877,50
496,71	6044,75
497,17	6147,37
497,63	6315,00
498,09	6423,66
498,56	6584,68
499,02	6726,38
499,48	6928,16
499,94	7038,57
500,40	7146,33
500,87	7375,93
501,33	7498,77
501,79	7720,81
502,25	7828,03
502,71	8126,72
503,17	8217,96
503,64	8358,03
504,10	8598,15
504,56	8755,05
505,02	8943,13
505,48	9142,34
505,94	9301,10
506,40	9501,80
506,87	9661,02
507,33	9918,58
507,79	10104,80
508,25	10285,73
508,71	10408,98
509,17	10573,25
509,63	10750,69
510,10	10959,50
510,56	11161,36
511,02	11343,79
511,48	11543,16
511,94	11687,03
512,40	11863,99
512,86	12000,57
513,32	12254,64
513,78	12371,11
514,25	12583,22
514,71	12999,04
515,17	12857,33
515,63	12972,32
516,09	13233,88
516,55	13444,16
517,01	13567,82
517,47	13665,76
517,93	13756,95
518,39	13969,26
518,85	14090,06
519,32	14177,64
519,78	14385,81
520,24	14518,32
520,70	14713,79
521,16	14854,94
521,62	15055,72
522,08	15037,00
522,54	15153,09
523,00	15331,91
523,46	15436,53
523,92	15557,88
524,38	15668,37
524,84	15743,07
525,30	15882,98
525,76	15990,16
526,22	16015,09
526,68	16079,63
527,14	16236,08
527,60	16271,27
528,06	16406,28
528,52	16451,41
528,98	16519,11
529,44	16596,07
529,90	16669,62
530,36	16774,34
530,82	16789,74
531,28	16836,97
531,74	16929,07
532,20	16952,36
532,66	17016,06
533,12	17061,28
533,58	17164,41
534,04	17145,90
534,50	17296,36
534,96	17246,66
535,42	17338,19
535,88	17311,45
536,34	17433,86
536,80	17471,59
537,26	17597,16
537,72	17587,89
538,18	17524,08
538,64	17666,14
539,10	17571,42
539,56	17784,91
540,02	17694,28
540,48	17772,89
540,94	17675,06
541,40	17778,73
541,86	17911,97
542,32	17890,33
542,78	17962,46
543,24	17964,18
543,69	17884,15
544,15	18088,91
544,61	18310,99
545,07	19525,12
545,53	23657,83
545,99	23710,21
546,45	19724,34
546,91	18514,30
547,37	18254,94
547,83	18146,65
548,29	18089,59
548,74	18093,72
549,20	18066,57
549,66	18162,12
550,12	18160,74
550,58	18146,65
551,04	18158,68
551,50	18128,43
551,96	18185,49
552,42	18149,05
552,87	18150,09
553,33	18271,79
553,79	18189,62
554,25	18250,47
554,71	18260,78
555,17	18277,98
555,63	18371,18
556,08	18261,82
556,54	18354,67
557,00	18271,10
557,46	18421,74
557,92	18475,41
558,38	18423,81
558,83	18427,94
559,29	18465,78
559,75	18489,87
560,21	18537,35
560,67	18524,28
561,13	18543,55
561,58	18486,08
562,04	18612,73
562,50	18586,22
562,96	18553,18
563,42	18691,91
563,87	18613,76
564,33	18589,32
564,79	18617,20
565,25	18704,30
565,71	18649,56
566,16	18749,06
566,62	18758,02
567,08	18686,74
567,54	18727,37
568,00	18828,97
568,45	18851,36
568,91	18887,18
569,37	18940,93
569,83	18931,63
570,28	18943,00
570,74	19013,29
571,20	19022,60
571,66	19022,94
572,11	19030,87
572,57	19059,82
573,03	19184,28
573,49	19098,77
573,94	19227,04
574,40	19247,38
574,86	19359,14
575,32	19380,19
575,77	19527,20
576,23	19858,37
576,69	20573,62
577,15	20037,04
577,60	19785,13
578,06	19755,77
578,52	20445,89
578,97	20566,01
579,43	20066,78
579,89	19915,38
580,34	19955,13
580,80	19953,40
581,26	20019,42
581,72	20086,48
582,17	20137,31
582,63	20262,16
583,09	20376,33
583,54	20379,10
584,00	20350,38
584,46	20547,66
584,91	20602,71
585,37	20753,02
585,83	20829,58
586,28	20842,05
586,74	20994,54
587,20	21171,38
587,65	21197,04
588,11	21214,04
588,57	21429,15
589,02	21589,54
589,48	21679,13
589,94	21708,65
590,39	21951,52
590,85	21945,27
591,30	22245,34
591,76	22313,52
592,22	22454,80
592,67	22700,26
593,13	22750,76
593,59	22985,60
594,04	23112,15
594,50	23279,89
594,95	23485,74
595,41	23638,98
595,87	23802,06
596,32	23958,22
596,78	24146,25
597,23	24296,25
597,69	24468,34
598,15	24742,38
598,60	25028,17
599,06	25312,75
599,51	25457,22
599,97	25775,44
600,43	26035,94
600,88	26301,88
601,34	26440,01
601,79	26757,56
602,25	27020,42
602,70	27293,30
603,16	27503,27
603,61	27780,33
604,07	27939,39
604,53	28243,19
604,98	28502,69
605,44	28821,36
605,89	29054,67
606,35	29246,36
606,80	29609,79
607,26	29953,67
607,71	30233,63
608,17	30475,45
608,62	30848,36
609,08	31243,24
609,53	31529,30
609,99	31788,15
610,44	32185,59
610,90	32562,69
611,35	33028,88
611,81	33448,42
612,26	33884,04
612,72	33999,80
613,17	34502,81
613,63	34943,70
614,08	35146,03
614,54	35681,10
614,99	35914,24
615,45	36412,83
615,90	36808,06
616,36	37075,20
616,81	37527,14
617,27	37891,24
617,72	38313,67
618,18	38770,41
618,63	39091,76
619,09	39535,15
619,54	39860,99
619,99	40419,53
620,45	40855,08
620,90	41304,44
621,36	41670,33
621,81	41895,87
622,27	42362,53
622,72	42914,42
623,18	43158,35
623,63	43547,05
624,08	44011,89
624,54	44213,62
624,99	44719,54
625,45	45125,39
625,90	45587,47
626,35	45907,17
626,81	46253,75
627,26	46517,01
627,72	47124,82
628,17	47332,67
628,62	47622,72
629,08	47936,73
629,53	48310,69
629,99	48655,43
630,44	48967,61
630,89	49163,05
631,35	49592,26
631,80	49895,90
632,26	50319,88
632,71	50524,76
633,16	50827,16
633,62	51001,94
634,07	51238,20
634,52	51577,57
634,98	51843,01
635,43	51983,67
635,88	52413,07
636,34	52505,88
636,79	52890,83
637,24	52992,88
637,70	53219,85
638,15	53337,77
638,60	53639,23
639,06	53883,24
639,51	54049,12
639,96	54242,30
640,42	54501,88
640,87	54739,37
641,32	54906,08
641,78	54926,73
642,23	55039,97
642,68	55401,52
643,14	55491,55
643,59	55742,50
644,04	55826,28
644,49	55998,30
644,95	55874,63
645,40	56141,17
645,85	56095,76
646,31	56285,91
646,76	56455,79
647,21	56564,01
647,66	56585,06
648,12	56643,80
648,57	56715,46
649,02	56837,76
649,47	56974,11
649,93	56907,60
650,38	56971,53
650,83	56911,66
651,28	56983,35
651,74	56926,81
652,19	56969,31
652,64	57025,12
653,09	56936,05
653,55	57090,54
654,00	57057,64
654,45	56963,77
654,90	56890,97
655,35	56740,59
655,81	56789,36
656,26	56825,20
656,71	56702,90
657,16	56765,71
657,62	56796,38
658,07	56532,24
658,52	56421,07
658,97	56375,28
659,42	56254,89
659,88	56099,45
660,33	56129,35
660,78	56049,98
661,23	55883,86
661,68	55752,46
662,13	55640,27
662,59	55280,50
663,04	55245,82
663,49	55076,12
663,94	55054,73
664,39	55002,72
664,84	54712,45
665,30	54584,85
665,75	54340,38
666,20	54152,34
666,65	54011,15
667,10	53757,17
667,55	53718,84
668,00	53617,85
668,46	53361,72
668,91	53178,22
669,36	53033,04
669,81	52630,38
670,26	52604,97
670,71	52387,65
671,16	52181,04
671,61	52062,84
672,06	51868,05
672,52	51708,63
672,97	51392,79
673,42	50936,44
673,87	50974,34
674,32	50505,26
674,77	50229,78
675,22	50074,59
675,67	49937,45
676,12	49726,79
676,57	49358,89
677,02	49195,74
677,47	48846,76
677,93	48673,42
678,38	48260,77
678,83	48024,06
679,28	47860,05
679,73	47778,24
680,18	47354,30
680,63	47213,16
681,08	46680,72
681,53	46432,05
681,98	46174,32
682,43	45779,49
682,88	45819,36
683,33	45511,04
683,78	45178,75
684,23	44993,49
684,68	44378,56
685,13	44166,55
685,58	43807,31
686,03	43606,82
686,48	43316,78
686,93	43081,15
687,38	42868,19
687,83	42638,58
688,28	42279,63
688,73	41971,44
689,18	41616,59
689,63	41200,68
690,08	41112,54
690,53	40734,38
690,98	40409,39
691,43	39992,70
691,88	39609,63
692,33	39338,52
692,78	39115,60
693,23	39058,53
693,68	38796,04
694,13	38604,40
694,58	38362,35
695,03	38138,81
695,48	37725,54
695,93	37492,94
696,38	37156,85
696,83	36726,11
697,28	36356,45
697,72	36015,42
698,17	35832,45
698,62	35526,57
699,07	35466,35
699,52	35238,45
699,97	34867,44
700,42	34667,02
700,87	34241,05
701,32	34004,44
701,77	33546,93
702,22	33201,50
702,67	32903,38
703,11	32835,65
703,56	32590,84
704,01	32292,39
704,46	31974,91
704,91	31790,28
705,36	31349,11
705,81	31029,42
706,26	30581,51
706,70	30536,11
707,15	30203,85
707,60	29980,95
708,05	29873,61
708,50	29511,74
708,95	29221,24
709,40	28924,92
709,84	28528,82
710,29	28240,36
710,74	27898,12
711,19	27818,42
711,64	27527,24
712,09	27354,59
712,53	27029,57
712,98	26821,94
713,43	26431,57
713,88	26096,35
714,33	25907,78
714,78	25658,93
715,22	25418,99
715,67	25177,44
716,12	25000,14
716,57	24718,23
717,02	24396,63
717,46	24096,26
717,91	23848,16
718,36	23570,20
718,81	23108,31
719,26	22984,91
719,70	22853,18
720,15	22561,32
720,60	22395,29
721,05	22171,95
721,49	21877,15
721,94	21672,53
722,39	21248,03
722,84	21011,53
723,28	20768,95
723,73	20590,24
724,18	20421,32
724,63	20207,86
725,07	20011,81
725,52	19934,74
725,97	19652,51
726,42	19516,84
726,86	19333,61
727,31	19105,32
727,76	18811,74
728,21	18582,09
728,65	18548,02
729,10	18304,80
729,55	18228,12
729,99	18006,78
730,44	17888,61
730,89	17822,68
731,33	17623,24
731,78	17447,24
732,23	17301,51
732,68	17082,86
733,12	16889,01
733,57	16838,34
734,02	16696,31
734,46	16616,25
734,91	16493,81
735,36	16412,09
735,80	16270,59
736,25	16028,40
736,70	15785,72
737,14	15723,29
737,59	15554,13
738,04	15413,35
738,48	15255,26
738,93	15137,43
739,37	14940,00
739,82	14866,85
740,27	14685,23
740,71	14511,52
741,16	14341,99
741,61	14241,81
742,05	13987,24
742,50	13816,63
742,94	13676,27
743,39	13528,85
743,84	13469,57
744,28	13377,44
744,73	13268,07
745,18	13096,47
745,62	13015,95
746,07	12813,38
746,51	12633,56
746,96	12488,30
747,40	12347,81
747,85	12174,32
748,30	12103,46
748,74	11989,44
749,19	11927,72
749,63	11941,55
750,08	11719,04
750,52	11634,12
750,97	11459,96
751,42	11324,94
751,86	11150,59
752,31	11018,03
752,75	10913,09
753,20	10769,18
753,64	10660,95
754,09	10580,30
754,53	10452,64
754,98	10396,89
755,42	10275,33
755,87	10163,87
756,31	10048,09
756,76	9904,82
757,20	9767,31
757,65	9678,12
758,09	9551,74
758,54	9457,23
758,98	9411,66
759,43	9340,30
759,87	9208,99
760,32	9156,74
760,76	8997,36
761,21	8918,03
761,65	8823,32
762,10	8716,91
762,54	8672,41
762,99	8690,48
763,43	8656,35
763,88	8591,79
764,32	8389,80
764,77	8365,72
765,21	8232,34
765,66	8154,46
766,10	8018,78
766,54	7899,18
766,99	7878,13
767,43	7775,59
767,88	7735,84
768,32	7709,13
768,77	7676,73
769,21	7619,63
769,66	7549,18
770,10	7516,13
770,54	7471,40
770,99	7295,16
771,43	7332,87
771,88	7251,44
772,32	7169,02
772,76	7135,99
773,21	6981,53
773,65	6893,47
774,10	6821,43
774,54	6857,45
774,98	6768,74
775,43	6752,73
775,87	6676,37
776,31	6615,35
776,76	6512,33
777,20	6494,66
777,65	6437,33
778,09	6362,00
778,53	6256,68
778,98	6258,01
779,42	6209,69
779,86	6179,70
780,31	6123,38
780,75	6127,71
781,19	6041,08
781,64	5964,45
782,08	5929,81
782,52	5878,50
782,97	5809,55
783,41	5780,23
783,85	5692,63
784,30	5614,03
784,74	5552,09
785,18	5534,44
785,63	5497,14
786,07	5499,47
786,51	5457,18
786,95	5466,51
787,40	5325,66
787,84	5306,68
788,28	5276,05
788,73	5226,44
789,17	5126,23
789,61	5094,94
790,05	5072,63
790,50	5026,03
790,94	4969,11
791,38	5007,72
791,82	4933,16
792,27	4953,13
792,71	4883,56
793,15	4960,12
793,59	4834,64
794,04	4791,04
794,48	4735,79
794,92	4694,19
795,36	4618,31
795,81	4631,29
796,25	4573,71
796,69	4565,06
797,13	4564,73
797,57	4521,80
798,02	4526,13
798,46	4461,24
798,90	4456,58
799,34	4384,70
799,79	4417,98
800,23	4378,71
800,67	4317,82
801,11	4307,84
801,55	4272,24
801,99	4203,70
802,44	4214,01
802,88	4214,01
803,32	4201,04
803,76	4157,45
804,20	4135,16
804,64	4078,60
805,09	4104,22
805,53	4067,95
805,97	4015,39
806,41	3935,87
806,85	3942,20
807,29	3863,02
807,74	3880,65
808,18	3853,04
808,62	3893,96
809,06	3910,59
809,50	3884,97
809,94	3892,63
810,38	4018,05
810,82	4007,40
811,27	4010,40
811,71	4007,07
812,15	3814,45
812,59	3726,96
813,03	3715,98
813,47	3668,74
813,91	3617,18
814,35	3643,46
814,79	3620,84
815,23	3620,51
815,67	3591,90
816,12	3578,93
816,56	3561,97
817,00	3539,01
817,44	3523,38
817,88	3480,47
818,32	3465,50
818,76	3470,82
819,20	3463,17
819,64	3413,61
820,08	3419,60
820,52	3372,03
820,96	3392,32
821,40	3384,01
821,84	3414,28
822,28	3361,06
822,72	3360,72
823,16	3364,71
823,60	3352,41
824,04	3331,12
824,48	3322,14
824,92	3295,53
825,36	3318,48
825,80	3253,62
826,24	3246,30
826,68	3216,70
827,12	3238,65
827,56	3268,92
828,00	3250,29
828,44	3192,42
828,88	3215,37
829,32	3191,09
829,76	3164,15
830,20	3205,39
830,64	3145,19
831,08	3191,09
831,52	3128,89
831,96	3128,23
832,40	3096,30
832,84	3071,35
833,28	3079,33
833,72	3120,91
834,16	3104,28
834,60	3097,29
835,04	3081,99
835,48	3097,96
835,91	3046,74
836,35	3047,74
836,79	3007,16
837,23	3041,75
837,67	2992,52
838,11	2982,55
838,55	3001,50
838,99	2987,87
839,43	3052,39
839,87	3077,67
840,30	3031,44
840,74	3101,62
841,18	3044,74
841,62	3035,43
842,06	3012,48
842,50	3049,07
842,94	3034,10
843,38	2953,61
843,81	2933,99
844,25	2911,70
844,69	2891,41
845,13	2905,72
845,57	2892,74
846,01	2917,36
846,45	2881,77
846,88	2852,17
847,32	2891,41
847,76	2886,43
848,20	2894,74
848,64	2871,46
849,08	2873,79
849,51	2890,08
849,95	2854,16
850,39	2830,88
850,83	2881,44
851,27	2826,56
851,70	2850,17
852,14	2850,84
852,58	2817,25
853,02	2808,27
853,46	2830,55
853,89	2802,61
854,33	2823,23
854,77	2780,66
855,21	2807,27
855,65	2815,25
856,08	2831,21
856,52	2779,66
856,96	2776,00
857,40	2781,99
857,83	2736,76
858,27	2776,67
858,71	2706,16
859,15	2743,08
859,58	2735,43
860,02	2752,06
860,46	2747,07
860,89	2758,38
861,33	2739,42
861,77	2735,43
862,21	2756,05
862,64	2722,79
863,08	2711,48
863,52	2742,75
863,95	2702,83
864,39	2703,83
864,83	2706,16
865,27	2670,24
865,70	2709,82
866,14	2672,90
866,58	2710,15
867,01	2697,51
867,45	2690,20
867,89	2694,52
868,32	2673,23
868,76	2711,48
869,20	2688,53
869,63	2716,14
870,07	2738,42
870,51	2645,63
870,94	2641,31
871,38	2640,31
871,82	2636,65
872,25	2639,31
872,69	2644,30
873,13	2635,32
873,56	2664,25
874,00	2650,95
874,43	2641,64
874,87	2639,31
875,31	2669,58
875,74	2615,70
876,18	2648,62
876,61	2638,31
877,05	2630,66
877,49	2629,67
877,92	2617,36
878,36	2627,67
878,79	2617,03
879,23	2653,28
879,67	2591,42
880,10	2602,73
880,54	2594,08
880,97	2617,03
881,41	2629,33
881,84	2613,04
882,28	2601,40
882,72	2623,68
883,15	2601,73
883,59	2603,06
884,02	2610,38
884,46	2606,72
884,89	2606,72
885,33	2603,72
885,76	2587,76
886,20	2588,43
886,63	2621,35
887,07	2572,79
887,50	2570,13
887,94	2573,46
888,37	2582,44
888,81	2665,92
889,24	2567,47
889,68	2609,05
890,11	2579,45
890,55	2590,42
890,98	2586,76
891,42	2560,82
891,85	2575,79
892,29	2564,48
892,72	2557,83
893,16	2571,13
893,59	2565,14
894,03	2577,45
894,46	2583,44
894,90	2551,51
895,33	2556,50
895,77	2568,47
896,20	2580,78
896,63	2561,15
897,07	2549,85
897,50	2554,50
897,94	2568,47
898,37	2588,76
898,81	2557,49
899,24	2547,85
899,68	2541,86
900,11	2569,80
900,54	2567,81
900,98	2536,21
901,41	2594,41
901,85	2601,73
902,28	2531,55
902,71	2528,89
903,15	2594,41
903,58	2549,85
904,02	2563,81
904,45	2540,87
904,88	2548,52
905,32	2523,57
905,75	2562,15
906,18	2531,22
906,62	2572,13
907,05	2557,16
907,48	2523,57
907,92	2559,49
908,35	2554,83
908,79	2536,54
909,22	2517,92
909,65	2543,19
910,09	2559,16
910,52	2572,79
910,95	2578,78
911,38	2569,14
911,82	2622,35
912,25	2611,71
912,68	2585,43
913,12	2553,84
913,55	2547,85
913,98	2541,86
914,42	2523,90
914,85	2541,53
915,28	2522,91
915,72	2544,19
916,15	2509,94
916,58	2545,85
917,01	2513,59
917,45	2529,89
917,88	2515,26
918,31	2526,90
918,74	2512,26
919,18	2530,56
919,61	2547,18
920,04	2518,92
920,47	2564,48
920,91	2540,53
921,34	2516,25
921,77	2514,26
922,20	2524,24
922,64	2533,22
923,07	2564,48
923,50	2535,88
923,93	2488,32
924,37	2538,21
924,80	2487,99
925,23	2532,88
925,66	2552,51
926,09	2492,31
926,53	2518,92
926,96	2472,35
927,39	2544,52
927,82	2515,59
928,25	2481,00
928,69	2514,92
929,12	2492,31
929,55	2510,60
929,98	2516,25
930,41	2502,29
930,84	2511,60
931,28	2475,35
931,71	2531,55
932,14	2511,93
932,57	2543,86
933,00	2482,66
933,43	2513,93
933,86	2512,26
934,30	2513,93
934,73	2497,96
935,16	2485,66
935,59	2496,30
936,02	2492,31
936,45	2496,30
936,88	2483,33
937,31	2500,29
937,75	2478,34
938,18	2488,32
938,61	2504,28
939,04	2476,01
939,47	2481,00
939,90	2492,64
940,33	2535,54
940,76	2464,37
941,19	2493,31
941,62	2463,04
942,05	2480,67
942,48	2496,63
942,91	2462,71
943,35	2465,04
943,78	2491,64
944,21	2493,97
944,64	2504,95
945,07	2473,68
945,50	2475,68
945,93	2493,31
946,36	2517,92
946,79	2480,67
947,22	2480,67
947,65	2492,64
948,08	2453,06
948,51	2463,71
948,94	2473,35
949,37	2542,20
949,80	2503,28
950,23	2476,34
950,66	2459,05
951,09	2481,33
951,52	2448,74
951,95	2484,33
952,38	2475,35
952,81	2520,91
953,24	2459,05
953,67	2481,33
954,10	2476,01
954,53	2480,67
954,96	2474,35
955,39	2482,66
955,82	2468,36
956,25	2490,98
956,68	2544,19
957,11	2473,68
957,53	2494,64
957,96	2493,64
958,39	2472,69
958,82	2470,03
959,25	2473,02
959,68	2455,72
960,11	2485,32
960,54	2510,27
960,97	2487,99
961,40	2492,31
961,83	2504,95
962,26	2478,01
962,68	2514,26
963,11	2496,63
963,54	2505,61
963,97	2493,97
964,40	2492,31
964,83	2514,92
965,26	2494,64
965,69	2485,32
966,11	2485,32
966,54	2456,72
966,97	2458,72
967,40	2491,31
967,83	2564,15
968,26	2495,30
968,69	2480,67
969,11	2493,31
969,54	2459,05
969,97	2465,04
970,40	2486,32
970,83	2458,05
971,26	2478,34
971,68	2457,72
972,11	2459,05
972,54	2471,02
972,97	2485,99
973,40	2474,68
973,82	2481,33
974,25	2476,34
974,68	2464,37
975,11	2477,68
975,54	2471,36
975,96	2480,67
976,39	2464,04
976,82	2488,98
977,25	2469,03
977,67	2483,99
978,10	2483,33
978,53	2459,72
978,96	2492,64
979,38	2490,65
979,81	2464,70
980,24	2477,01
980,67	2487,32
981,09	2483,00
981,52	2467,03
981,95	2464,37
982,38	2463,04
982,80	2454,73
983,23	2490,31
983,66	2490,65
984,08	2464,37
984,51	2439,76
984,94	2471,36
985,37	2481,33
985,79	2470,36
986,22	2459,38
986,65	2484,33
987,07	2465,04
987,50	2464,04
987,93	2475,68
988,35	2457,05
988,78	2486,65
989,21	2466,70
989,63	2474,35
990,06	2452,73
990,49	2476,34
990,91	2505,28
991,34	2477,68
991,77	2457,39
992,19	2469,69
992,62	2462,38
993,05	2460,71
993,47	2492,64
993,90	2486,65
994,32	2479,01
994,75	2468,70
995,18	2455,72
995,60	2453,73
996,03	2448,74
996,45	2498,96
996,88	2484,66
997,31	2462,04
997,73	2485,32
998,16	2457,72
998,58	2494,97
999,01	2476,34
999,44	2478,67
999,86	2500,29
1000,29	2460,71
1000,71	2484,66
1001,14	2486,65
1001,56	2478,67
1001,99	2485,32
1002,41	2461,71
1002,84	2489,98
1003,27	2458,39
1003,69	2487,32
1004,12	2489,65
1004,54	2501,62
1004,97	2471,02
1005,39	2458,05
1005,82	2488,65
1006,24	2465,04
1006,67	2468,03
1007,09	2459,05
1007,52	2473,68
1007,94	2475,01
1008,37	2561,82
1008,79	2511,93
1009,22	2508,94
1009,64	2514,59
1010,07	2518,58
1010,49	2543,53
1010,92	2534,88
1011,34	2604,06
1011,77	2597,41
1012,19	2572,13
1012,62	2629,00
1013,04	2702,50
1013,46	2634,65
1013,89	2531,22
1014,31	2538,54
1014,74	2505,61
1015,16	2497,96
1015,59	2490,65
1016,01	2497,30
1016,44	2483,00
1016,86	2724,45
1017,28	2477,01
1017,71	2443,75
1018,13	2539,54
1018,56	2511,27
1018,98	2490,65
1019,40	2465,04
1019,83	2484,33
1020,25	2474,35
1020,68	2477,68
1021,10	2480,34
1021,52	2469,69
1021,95	2549,18
1022,37	2477,68
1022,79	2491,31
1023,22	2491,64
1023,64	2470,69
1024,07	2480,00
1024,49	2485,32
1024,91	2452,73
1025,34	2462,71
1025,76	2528,56
1026,18	2478,01
1026,61	2472,69
1027,03	2478,67
1027,45	2480,00
1027,88	2454,39
1028,30	2511,93
1028,72	2472,35
1029,15	2476,34
1029,57	2472,69
1029,99	2498,30
1030,41	2441,09
1030,84	2466,37
1031,26	2492,64
1031,68	2472,69
1032,11	2484,99
1032,53	2462,04
1032,95	2454,06
1033,37	2477,01
1033,80	2478,67
1034,22	2459,72
1034,64	2508,94
1035,06	2461,38
1035,49	2459,05
1035,91	2484,99
1036,33	2443,75
1036,75	2471,02
1037,18	2490,31
1037,60	2474,35
1038,02	2499,63
1038,44	2489,98
1038,87	2451,07
1039,29	2461,71
1039,71	2481,33
1040,13	2462,71
1040,55	2496,30
1040,98	2505,28
1041,40	2479,01
1041,82	2484,33
1042,24	2478,67
1042,66	2489,98
1043,09	2456,72
1043,51	2467,03
1043,93	2453,06
1044,35	2454,73
1044,77	2464,37
1045,20	2482,66
1045,62	2456,06
1046,04	2483,66
1046,46	2481,67
1046,88	2451,07
1047,30	2480,00
1047,72	2487,99
1048,15	2490,65
1048,57	2467,70
1048,99	2453,40
1049,41	2471,02
1049,83	2481,33
1050,25	2506,28
1050,67	2492,31
1051,09	2471,69
1051,52	2482,00
1051,94	2424,13
1052,36	2476,01
1052,78	2438,76
1053,20	2452,73
1053,62	2456,39
1054,04	2452,40
1054,46	2487,99
1054,88	2512,60
1055,30	2505,94
1055,72	2492,97
1056,14	2494,64
1056,57	2556,83
1056,99	2448,74
1057,41	2482,00
1057,83	2491,64
1058,25	2464,04
1058,67	2465,37
1059,09	2460,38
1059,51	2471,69
1059,93	2464,04
1060,35	2463,71
1060,77	2487,32
1061,19	2512,93
1061,61	2479,34
1062,03	2479,67
1062,45	2459,05
1062,87	2488,32
1063,29	2484,99
1063,71	2469,03
1064,13	2459,05
1064,55	2440,76
1064,97	2492,97
1065,39	2458,72
1065,81	2466,70
1066,23	2468,36
1066,65	2468,36
1067,07	2505,94
1067,49	2468,36
1067,91	2464,04
1068,33	2444,42
1068,75	2486,32
1069,17	2496,30
1069,59	2485,66
1070,00	2462,71
1070,42	2487,99
1070,84	2463,71
1071,26	2449,41
1071,68	2454,39
1072,10	2485,66
1072,52	2466,37
1072,94	2440,76
1073,36	2452,40
1073,78	2453,06
1074,20	2471,69
1074,62	2454,73
1075,03	2450,40
1075,45	2469,69
1075,87	2484,33
1076,29	2469,03
1076,71	2493,64
1077,13	2487,99
1077,55	2433,44
1077,97	2474,68
1078,38	2474,68
1078,80	2469,36
1079,22	2477,68
1079,64	2482,00
1080,06	2451,40
1080,48	2474,35
1080,89	2470,03
1081,31	2467,70
1081,73	2468,70
1082,15	2467,03
1082,57	2482,00
1082,99	2476,68
1083,40	2448,08
1083,82	2495,30
1084,24	2444,42
1084,66	2451,40
1085,08	2470,69
1085,49	2446,08
1085,91	2482,66
1086,33	3143,86
1086,75	2472,69
1087,17	2467,70
1087,58	2462,71
1088,00	2464,37
1088,42	2497,63
1088,84	2474,35
1089,25	2443,75
1089,67	2468,03
1090,09	2463,04
1090,51	2448,74
1090,92	2460,05
1091,34	2444,75
1091,76	2462,38
1092,18	2464,37
1092,59	2463,37
1093,01	2470,36
1093,43	2468,36
1093,84	2436,10
1094,26	2463,04
1094,68	2456,39
1095,10	2454,39
1095,51	2456,72
1095,93	2459,38
1096,35	2477,34
1096,76	2478,34
1097,18	2488,98
1097,60	2453,73
1098,01	2456,06
1098,43	2459,05
1098,85	2471,02
1099,26	2441,76
1099,68	2456,39
1100,10	2451,73
1100,51	2460,71
1100,93	2443,09
1101,35	2462,04
1101,76	2456,72
1102,18	2604,72
1102,60	2483,00
1103,01	2440,09
1103,43	2463,37
1103,84	2471,36
1104,26	2448,41
1104,68	2470,69
1105,09	2429,78
1105,51	2446,08
1105,92	2482,00
1106,34	2439,76
1106,76	2471,36
1107,17	2465,37
1107,59	2457,39
1108,00	2430,12
1108,42	2443,09
1108,83	2439,76
1109,25	2435,10
1109,67	2442,42
1110,08	2437,10
1110,50	2416,48
1110,91	2438,76
1111,33	2422,13
1111,74	2445,41
1112,16	2451,40
1112,57	2461,38
1112,99	2438,76
1113,41	2461,71
1113,82	2449,41
1114,24	2464,04
1114,65	2454,39
1115,07	2443,09
1115,48	2426,46
1115,90	2174,70
1116,31	2180,68
1116,73	2180,35
1117,14	2183,67
>>>>>End Processed Spectral Data<<<<<
